left,0,0,-0.9345703,-0.9345703,-0.9345703,-0.7631836,-0.7631836,-0.7631836,-0.7631836,-0.7426758,-0.7426758,-0.6904297,-0.6904297,-0.65283203,-0.6274414,-0.6191406,-0.62402344,-0.63378906,-0.7001953,-0.7001953,-0.7001953,-0.70458984,-0.7050781,-0.7495117,-0.7915039,-0.7915039,-0.80566406,-0.7885742,-0.78759766,-0.78759766,-0.8022461,-0.82177734,-0.80615234,-0.7866211,-0.76660156,-0.78808594,-0.77001953,-0.75439453,-0.75146484,-0.7963867,-0.7368164,-0.7368164,-0.81884766,-0.81884766,-0.81884766,-0.80810547,-0.81103516,-0.8178711,-0.8178711,-0.8256836,-0.8256836,-0.8256836,-0.76171875,-0.76171875,-0.78759766,-0.78759766,-0.7529297,-0.7529297,-0.7529297,-0.75390625,-0.75390625,-0.7109375,-0.7109375,-0.7216797,-0.7216797,-0.7216797,
right,0,0,-0.7246094,-0.7246094,-0.7558594,-0.7558594,-0.7558594,-0.7060547,-0.7060547,-0.70703125,-0.7441406,-0.7441406,-0.7890625,-0.83496094,-0.8066406,-0.79541016,-0.77783203,-0.77783203,-0.77783203,-0.7949219,-0.8378906,-0.8618164,-0.8461914,-0.8828125,-0.89941406,-0.89501953,-0.9082031,-0.9238281,-0.9238281,-0.9238281,-1.0019531,-0.9628906,-0.8833008,-0.8623047,-1.0175781,-1.0146484,-0.97216797,-0.91552734,-0.95214844,-0.95214844,-0.95214844,-0.95214844,-0.94628906,-0.9765625,-0.9316406,-0.88916016,-0.88916016,-0.921875,-0.921875,-0.953125,-0.953125,-0.953125,-0.94091797,-0.94091797,-0.9404297,-0.9404297,-0.9604492,-0.9633789,-0.95166016,-0.9609375,-0.9379883,-0.94433594,-0.9790039,-0.9770508,-0.9916992,-0.9916992,-1.0180664,-0.99072266,-0.99072266,-0.99072266,-0.9638672,-0.9638672,-0.9638672,-1.1889648,-1.1889648,-1.1889648,-1.1889648,-1.1889648,-1.1040039,-1.1040039,-0.8642578,-0.8642578,-0.8642578,-0.8901367,-0.8901367,
up,0,0,-0.8203125,-0.8203125,-0.8203125,-0.81591797,-0.81591797,-0.8173828,-0.8149414,-0.8149414,-0.80615234,-0.82666016,-0.8510742,-0.8803711,-0.9663086,-1.1220703,-1.2827148,-1.3442383,-1.453125,-1.5834961,-1.6674805,-1.6884766,-1.6201172,-1.5166016,-1.3510742,-1.1845703,-0.96240234,-0.84765625,-0.6972656,-0.46533203,-0.46533203,-0.19580078,-0.19580078,-0.13964844,-0.046875,0.029785156,0.25585938,0.25585938,0.3413086,0.3413086,0.3642578,0.4091797,0.45898438,0.50097656,0.50097656,0.39501953,0.39501953,0.39501953,0.38427734,0.38427734,0.3203125,0.3203125,0.30517578,0.30517578,0.30517578,0.23925781,0.23925781,0.2626953,0.2709961,0.25634766,0.25634766,0.24267578,0.1328125,0.1328125,0.1328125,0.1328125,0.1328125,0.057617188,0.057617188,
down,0,0,-0.8154297,-0.8154297,-0.81396484,-0.81396484,-0.81396484,-0.8208008,-0.8183594,-0.8154297,-0.8154297,-0.81884766,-0.8071289,-0.82470703,-0.8251953,-0.8251953,-0.8183594,-0.81347656,-0.8203125,-0.82373047,-0.82373047,-0.8256836,-0.83251953,-0.8208008,-0.8227539,-0.8227539,-0.8286133,-0.8286133,-0.82421875,-0.82421875,-0.8154297,-0.8173828,-0.8203125,-0.81884766,-0.81884766,-0.81347656,-0.81347656,-0.81884766,-0.81347656,-0.81103516,-0.81103516,-0.8149414,-0.8154297,-0.8178711,-0.8173828,-0.81103516,-0.8129883,-0.8129883,-0.82373047,-0.82373047,-0.81640625,-0.81640625,-0.82666016,-0.82666016,-0.7993164,-0.7993164,-0.7885742,-0.7734375,-0.75146484,-0.6899414,-0.6899414,-0.52734375,-0.52734375,-0.52734375,-0.53271484,-0.53271484,-0.54003906,-0.5683594,-0.5546875,-0.52685547,-0.49951172,-0.5161133,-0.5161133,-0.59814453,-0.59814453,-0.59814453,-0.55029297,-0.4819336,-0.4975586,-0.50390625,-0.4897461,-0.6020508,-0.6020508,-0.6899414,-0.6923828,-0.74658203,-0.8183594,-0.8417969,-0.9248047,-0.9248047,-0.9760742,-0.83154297,-0.5541992,-0.5541992,-0.4638672,-0.45654297,-0.36816406,-0.22998047,-0.22998047,-0.21044922,-0.171875,-0.1508789,-0.14355469,-0.14355469,-0.1459961,-0.17626953,-0.17626953,-0.17626953,-0.17626953,-0.17089844,-0.18603516,-0.20263672,-0.18652344,-0.18652344,-0.20214844,-0.20214844,-0.2241211,-0.2241211,
square,0,0,-0.79833984,-0.79833984,-0.79833984,-0.72802734,-0.72802734,-0.75878906,-0.75878906,-0.68408203,-0.6333008,-0.34960938,-0.23535156,-0.23535156,-0.5576172,-0.5576172,-1.0703125,-0.50683594,-0.3803711,-0.66308594,-0.6801758,-0.56689453,-1.3588867,-1.1362305,-1.3740234,-0.86621094,-1.6069336,-1.1611328,-0.63378906,-0.6894531,-1.3676758,-1.175293,-1.0483398,-0.9897461,-1.0087891,-0.95654297,-0.92578125,-0.96728516,-0.94921875,-0.96484375,-0.9501953,-0.9501953,-0.9501953,-0.9267578,-0.8852539,-0.8598633,-0.8544922,-0.7680664,-0.7548828,-0.7548828,-0.7661133,-0.67285156,-0.6176758,-0.6176758,-0.7416992,-0.7416992,-0.76953125,-0.83203125,-1.1113281,-1.1113281,-1.1113281,-1.1113281,-1.0708008,-1.0708008,-1.4331055,-1.4331055,-1.2763672,-1.3066406,-1.3066406,-1.3193359,-1.3193359,-1.168457,-0.9267578,-0.9267578,-0.9267578,-0.6201172,-0.6201172,-0.6201172,-0.5498047,-0.5498047,-0.5498047,-0.54541016,-0.51708984,-0.51708984,-0.5493164,-0.4506836,-0.4506836,-0.8886719,-0.8886719,-0.34472656,-0.5419922,-0.5419922,-0.734375,-0.734375,-0.734375,-0.7866211,-0.7866211,-0.71240234,-0.74121094,-0.8120117,-0.8227539,-0.8574219,-0.87158203,-0.85791016,-0.84228516,-0.84228516,-0.84228516,-0.8100586,-0.78564453,-0.75634766,-0.7734375,-0.7944336,-0.76708984,-0.76464844,-0.78125,-0.78808594,-0.80371094,-0.80371094,-0.79785156,-0.79785156,-0.82421875,-0.82421875,-0.82421875,-0.8066406,-0.7885742,-0.7885742,-0.7885742,-0.7885742,
triangle,0,0,-0.75146484,-0.75146484,-0.7402344,-0.7402344,-0.7475586,-0.75390625,-0.7397461,-0.7260742,-0.72216797,-0.7211914,-0.6777344,-0.6777344,-0.5654297,-0.5654297,-0.43847656,-0.43847656,-0.43847656,-0.44677734,-0.44433594,-0.46972656,-0.46972656,-0.484375,-0.5361328,-0.6352539,-0.7158203,-0.69433594,-0.7324219,-0.7324219,-0.90478516,-0.90478516,-0.9638672,-0.9638672,-0.9638672,-0.9375,-0.87646484,-0.9316406,-0.9824219,-1.0205078,-1.0771484,-1.0771484,-1.0732422,-0.9243164,-0.9243164,-0.89453125,-0.89160156,-0.8154297,-0.8154297,-0.86865234,-0.86865234,-0.86865234,-0.74658203,-0.74658203,-0.74658203,-0.80859375,-0.75439453,-0.75439453,-0.7495117,-0.68115234,-0.68115234,-0.68115234,-0.68115234,-0.45996094,-0.45996094,-0.45996094,-0.45996094,-0.45996094,-0.6152344,-0.6152344,-0.6152344,-0.6152344,-0.6152344,-0.6635742,-0.6279297,-0.6357422,-0.7636719,-1.0581055,-1.0581055,-1.0581055,-1.0581055,-1.0581055,-1.3486328,-1.3486328,-1.3486328,-1.3413086,-1.3413086,-1.2714844,-1.2714844,-1.0341797,-1.0341797,-0.84033203,-0.66259766,-0.66259766,-0.8691406,-0.8691406,-0.5366211,-0.18847656,-0.18847656,-0.7080078,-0.4140625,-0.4140625,-0.4140625,-0.4140625,-0.4140625,-0.44677734,-0.51660156,-0.61572266,-0.6411133,-0.61865234,-0.66552734,-0.75097656,-0.75097656,-0.75097656,-0.72021484,-0.72021484,-0.71972656,-0.71972656,-0.7055664,-0.7133789,-0.72558594,-0.72314453,-0.72314453,-0.69628906,-0.6982422,-0.7026367,-0.7368164,-0.7368164,-0.7368164,
circleCw,0,0,-0.70654297,-0.70654297,-0.7080078,-0.7080078,-0.7167969,-0.703125,-0.67626953,-0.5805664,-0.5805664,-0.49951172,-0.49951172,-0.49951172,-0.47509766,-0.43115234,-0.43115234,-0.43115234,-0.5395508,-0.5395508,-0.5395508,-0.54589844,-0.5629883,-0.5800781,-0.5800781,-0.5805664,-0.57910156,-0.58691406,-0.64941406,-0.49316406,-0.48095703,-0.3383789,-1.1835938,-0.71777344,-0.71777344,-0.8544922,-0.99609375,-1.105957,-1.0708008,-1.0024414,-0.97314453,-0.9951172,-1.019043,-0.99365234,-0.89746094,-0.89746094,-1.0185547,-0.98046875,-0.87646484,-0.8935547,-0.9614258,-0.8178711,-0.8178711,-0.8178711,-0.81689453,-0.81689453,-0.79052734,-0.79052734,-0.79052734,-0.76660156,-0.7895508,-0.90625,-0.90625,-0.9013672,-0.9013672,-0.9013672,-1.1289063,-1.1435547,-1.0102539,-1.065918,-0.81396484,-0.81396484,-0.81396484,-0.9785156,-0.9785156,-0.9472656,-0.8251953,-0.8251953,-0.76464844,-0.75097656,-0.69433594,-0.6489258,-0.60058594,-0.51708984,-0.51708984,-0.47216797,-0.47216797,-0.5083008,-0.5083008,-0.55615234,-0.55615234,-0.5830078,-0.58691406,-0.58691406,-0.6303711,-0.6303711,-0.6303711,-0.73828125,-0.73828125,-0.8066406,-0.8066406,-0.7949219,-0.7949219,-0.82177734,-0.82373047,-0.82373047,-0.8232422,-0.8232422,-0.8100586,-0.78759766,-0.78759766,-0.7895508,-0.77783203,-0.7729492,-0.75878906,-0.75878906,-0.7475586,-0.4477539,-0.4477539,-0.4477539,-1.1171875,-0.7348633,-0.7348633,-0.7324219,-0.7324219,
circleCcw,0,0,-0.82666016,-0.82666016,-1.0283203,-1.0283203,-1.0283203,-1.3833008,-1.1508789,-0.9189453,-0.9370117,-1.0737305,-1.1152344,-1.0200195,-0.96875,-0.9614258,-0.9580078,-0.92822266,-0.82958984,-0.9580078,-0.9580078,-1.0102539,-1.0117188,-0.97998047,-0.95947266,-0.93115234,-0.8823242,-0.8823242,-0.8823242,-0.8457031,-0.83740234,-0.8359375,-0.8359375,-0.82421875,-0.82421875,-0.82421875,-0.84765625,-0.84765625,-0.8666992,-0.8676758,-0.86376953,-0.84521484,-0.8178711,-0.7573242,-0.7167969,-0.66845703,-0.66845703,-0.65966797,-0.65966797,-0.65966797,-0.7836914,-1.1635742,-0.6376953,-0.6376953,-0.6376953,-0.5966797,-0.5341797,-0.58935547,-0.58935547,-0.60302734,-0.60302734,-0.61328125,-0.7241211,-0.7241211,-0.7524414,-0.72509766,-0.71191406,-0.75097656,-0.75097656,-0.7285156,-0.7285156,-0.76123047,-0.7270508,-0.7270508,-0.77490234,-0.77490234,-0.7919922,-0.7919922,-0.73046875,-0.73046875,-0.73046875,-0.72265625,-0.72265625,-0.7480469,-0.7480469,-0.75878906,-0.76464844,-0.7553711,-0.7661133,-0.7661133,
left,0,1,-0.61279297,-0.61279297,-0.61279297,-0.6621094,-0.6621094,-0.66064453,-0.6347656,-0.67333984,-0.67333984,-0.70410156,-0.7055664,-0.7368164,-0.76171875,-0.7480469,-0.7680664,-0.7680664,-0.7680664,-0.7114258,-0.7114258,-0.7163086,-0.73339844,-0.49902344,-0.49902344,-0.58251953,-0.42333984,-0.42333984,-0.56884766,-0.6166992,-0.78515625,-0.7373047,-0.7338867,-0.734375,-0.734375,-0.75683594,-0.7451172,-0.7451172,-0.79052734,-0.79052734,-0.80126953,-0.78466797,-0.78466797,-0.74560547,-0.74560547,-0.7324219,-0.7324219,-0.7519531,-0.7519531,-0.7519531,-0.7636719,-0.7636719,-0.76123047,-0.76123047,-0.75097656,-0.7236328,-0.72802734,-0.7763672,-0.7763672,-0.76708984,-0.7050781,-0.7050781,-0.7050781,-0.7050781,-0.7050781,-0.7050781,-0.74902344,-0.74658203,-0.70996094,-0.70996094,
right,0,1,-0.7919922,-0.7919922,-0.7973633,-0.7944336,-0.7890625,-0.7890625,-0.78271484,-0.7944336,-0.7944336,-0.81152344,-0.81152344,-0.8071289,-0.7895508,-0.7895508,-0.79589844,-0.78222656,-0.78808594,-0.78808594,-0.7915039,-0.8022461,-0.8022461,-0.7910156,-0.7910156,-0.7910156,-0.8017578,-0.8017578,-0.7973633,-0.8017578,-0.7949219,-0.7919922,-0.7919922,-0.7836914,-0.7729492,-0.75927734,-0.75927734,-0.75927734,-0.7426758,-0.7426758,-0.69189453,-0.69189453,-0.6767578,-0.65527344,-0.6538086,-0.7050781,-0.7050781,-0.6772461,-0.6772461,-0.6791992,-0.6791992,-0.6791992,-0.68066406,-0.6948242,-0.75146484,-0.75146484,-0.91259766,-0.91259766,-0.91259766,-1.0498047,-1.0571289,-1.0048828,-1.0048828,-1.0048828,-1.0073242,-1.0073242,-1.0991211,-1.0991211,-1.0834961,-1.0791016,-1.0302734,-1.0097656,-1.0097656,-1.0366211,-1.0366211,-1.0307617,-1.0292969,-1.0292969,-1.0068359,-1.0068359,-1.0551758,-0.99902344,-0.99902344,-0.9394531,-0.96484375,-0.99853516,-0.99853516,-0.88623047,-0.88623047,-0.88623047,-0.8833008,-0.8833008,-0.8881836,-0.90625,-0.88378906,-0.88378906,-0.88378906,-0.85595703,-0.8666992,-0.92871094,-0.92871094,-0.92871094,-0.9423828,-0.9423828,-0.93408203,-0.9140625,
up,0,1,-0.8666992,-0.8666992,-0.83691406,-0.83691406,-0.84521484,-0.91503906,-0.91503906,-0.9951172,-1.2055664,-0.5996094,-1.1333008,-0.39111328,-0.78125,-1.1967773,-1.28125,-1.2397461,-0.828125,-0.828125,-0.81396484,-0.82128906,-0.8173828,-0.8173828,-0.8173828,-0.81689453,-0.82421875,-0.82666016,-0.8276367,-0.8125,-0.81103516,-0.8100586,-0.81396484,-0.81396484,-0.81396484,-0.78759766,-0.78759766,-0.80371094,-0.8286133,-0.80566406,-0.8725586,-1.0615234,-1.2822266,-1.3984375,-1.512207,-1.6035156,-1.793457,-1.921875,-1.9458008,-1.6879883,-1.6879883,-1.2143555,-1.2143555,-0.98779297,-0.72753906,-0.6455078,-0.38867188,-0.38867188,0.12988281,0.12988281,0.12988281,0.22216797,0.22216797,0.29101563,0.4555664,0.78564453,0.78564453,0.8359375,0.82666016,0.82666016,0.88671875,0.88671875,0.88671875,0.8330078,0.8330078,0.7006836,0.7006836,0.6455078,0.6455078,0.6381836,0.57177734,0.57177734,0.55322266,0.5332031,0.5126953,0.45458984,0.44921875,0.41601563,0.41601563,0.36621094,0.36621094,0.33642578,0.27246094,0.27246094,0.17529297,0.17529297,0.0234375,-0.01953125,-0.01953125,-0.18066406,-0.18066406,-0.29003906,-0.29003906,-0.30517578,-0.38330078,
down,0,1,-0.84814453,-0.84814453,-0.8466797,-0.8466797,-0.8359375,-0.8413086,-0.84277344,-0.83251953,-0.83251953,-0.828125,-0.82958984,-0.8300781,-0.82421875,-0.82666016,-0.8261719,-0.8232422,-0.8149414,-0.8100586,-0.8203125,-0.8276367,-0.82910156,-0.82470703,-0.8208008,-0.8208008,-0.8208008,-0.82714844,-0.82714844,-0.82714844,-0.38378906,-0.38378906,-1.0375977,-0.78222656,-0.7529297,-0.6845703,-0.6845703,-0.6376953,-0.5966797,-0.57421875,-0.54833984,-0.5229492,-0.48876953,-0.48876953,-0.4663086,-0.4663086,-0.4663086,-0.4296875,-0.4296875,-0.5878906,-0.5878906,-0.78515625,-0.78515625,-0.78515625,-0.8149414,-0.8149414,-0.8779297,-0.8779297,-0.82910156,-0.9663086,-0.9663086,-0.7939453,-0.7939453,-0.796875,-0.6567383,-0.6567383,-0.5283203,-0.5283203,-0.5283203,-0.5283203,-0.25585938,-0.25585938,-0.25585938,-0.27441406,-0.22705078,-0.2680664,-0.2680664,-0.2319336,-0.2319336,-0.2319336,-0.24560547,-0.24560547,-0.30908203,-0.30908203,-0.30908203,-0.3232422,-0.33251953,-0.3095703,-0.30419922,-0.26708984,-0.26708984,-0.26708984,-0.2705078,-0.2705078,
square,0,1,-0.7944336,-0.7944336,-0.78808594,-0.78808594,-0.79785156,-0.79589844,-0.79589844,-0.77246094,-0.77246094,-0.78515625,-0.78515625,-0.78271484,-0.79052734,-0.79052734,-0.796875,-0.796875,-0.80126953,-0.79785156,-0.7939453,-0.7841797,-0.7841797,-0.78564453,-0.7871094,-0.7807617,-0.77685547,-0.7792969,-0.7675781,-0.7675781,-0.7832031,-0.77685547,-0.77685547,-0.765625,-0.765625,-0.76904297,-0.76904297,-0.7841797,-0.7841797,-0.7841797,-0.7705078,-0.74316406,-0.6748047,-0.6748047,-0.6635742,-0.6220703,-0.6220703,-0.6220703,-0.6220703,-0.6298828,-0.6694336,-0.77246094,-0.8125,-0.64404297,-0.40771484,-0.40771484,-0.8925781,-0.77441406,-0.77441406,-0.7910156,-0.7910156,-0.80029297,-0.80029297,-0.77783203,-0.7607422,-0.7607422,-0.6821289,-0.6821289,-0.6220703,-0.6220703,-0.59716797,-0.59716797,-0.5673828,-0.5419922,-0.5419922,-0.6074219,-0.6074219,-0.91796875,-0.91796875,-0.91796875,-1.2158203,-1.2158203,-1.6357422,-1.6357422,-1.6357422,-1.125,-1.125,-1.3984375,-1.3984375,-1.4726563,-0.75146484,-1.2680664,-1.109375,-1.109375,-1.0522461,-1.0522461,-1.015625,-1.0073242,-0.9941406,-1.0039063,-0.93652344,-0.99560547,-0.99560547,-0.99560547,-0.8828125,-0.8828125,-0.9536133,-0.9536133,-0.9013672,-0.8227539,-0.8227539,-0.7475586,-0.6791992,-0.6791992,-0.6791992,-0.6791992,-0.8144531,-0.8144531,-0.80126953,-0.7890625,-0.93847656,-0.93847656,-0.93847656,-0.9355469,-0.9482422,-1.1577148,-1.1577148,-1.2958984,-1.2958984,-1.3486328,-1.237793,-1.237793,-0.95214844,-0.95214844,-0.9501953,-0.9501953,-0.97558594,-0.33789063,-0.33789063,-0.2631836,-0.765625,-0.44335938,-0.28710938,-0.9589844,-0.24121094,-0.7524414,-0.23876953,-0.23876953,-0.23876953,-0.42578125,-0.49121094,-0.7158203,-0.7158203,-1.2558594,-0.41552734,-1.1992188,-0.5205078,-0.5126953,-1.0595703,-0.5673828,-0.5673828,-0.60058594,-0.6665039,-0.6665039,-0.6665039,-0.6660156,-0.69873047,-0.69873047,-0.7163086,-0.7373047,-0.81933594,-0.81933594,-0.82470703,-0.82470703,-0.82470703,-0.76220703,-0.76220703,-0.7578125,-0.7504883,-0.7504883,-0.78125,-0.78125,-0.7475586,-0.7475586,-0.7734375,-0.7734375,-0.77246094,-0.76660156,-0.76660156,-0.78027344,-0.78027344,-0.7651367,-0.7651367,-0.7651367,-0.7680664,-0.7680664,-0.77783203,-0.7661133,-0.7661133,-0.7714844,-0.7714844,-0.8222656,-0.8222656,-0.79833984,-0.79833984,-0.79833984,-0.6308594,-0.6308594,
triangle,0,1,-0.8564453,-0.8564453,-0.8564453,-0.8623047,-0.8623047,-0.8623047,-0.7866211,-0.7866211,-0.7763672,-0.765625,-0.7739258,-0.7763672,-0.77685547,-0.75927734,-0.75927734,-0.7553711,-0.7607422,-0.76708984,-0.7709961,-0.7631836,-0.7475586,-0.7548828,-0.77246094,-0.77246094,-0.7944336,-0.78564453,-0.71191406,-0.41845703,-0.41845703,-1.0898438,-0.5185547,-0.76953125,-0.82470703,-0.80078125,-0.7739258,-0.76660156,-0.7836914,-0.7553711,-0.7036133,-0.70166016,-0.70166016,-0.6425781,-0.59521484,-0.62890625,-0.6538086,-0.64160156,-0.53515625,-0.53515625,-0.4663086,-0.4663086,-0.4663086,-0.53125,-0.53125,-0.53564453,-0.53564453,-0.6411133,-0.6411133,-0.7192383,-0.7192383,-0.75390625,-0.7944336,-0.7753906,-0.8696289,-0.8696289,-0.89746094,-0.9765625,-0.9765625,-0.9897461,-0.9897461,-1.1083984,-1.1083984,-1.1083984,-1.0795898,-1.0751953,-1.0800781,-1.0800781,-1.0800781,-0.95458984,-0.95458984,-0.8154297,-0.8154297,-0.75097656,-0.75097656,-0.78466797,-0.6738281,-0.6738281,-0.68603516,-0.6899414,-0.80859375,-0.80859375,-0.80859375,-0.7011719,-0.7011719,-0.7050781,-0.73046875,-0.70751953,-0.70947266,-0.69628906,-0.71972656,-0.71972656,-0.86376953,-0.86376953,-0.86376953,-1.0854492,-1.0854492,-1.0859375,-1.184082,-1.184082,-1.184082,-1.184082,-1.1948242,-1.2265625,-1.2075195,-1.1166992,-0.7451172,-0.7451172,-0.7451172,-1.1469727,-1.1469727,-0.33154297,-1.0546875,-0.3647461,-0.640625,-0.640625,-0.44433594,-0.28955078,-0.40478516,-0.40429688,-0.40429688,-0.49560547,-0.54589844,-0.61865234,-0.61865234,-0.7001953,-0.73339844,-0.73339844,-0.69677734,-0.69677734,-0.7270508,-0.7270508,-0.7270508,-0.7548828,-0.78515625,-0.81884766,-0.81884766,-0.81884766,-0.7597656,-0.7597656,-0.74316406,-0.74316406,-0.7548828,-0.73535156,-0.73535156,-0.73535156,-0.73535156,-0.77490234,-0.77490234,-0.8183594,-0.8071289,-0.8071289,
circleCw,0,1,-0.8364258,-0.8364258,-0.8354492,-0.8354492,-0.8354492,-0.8354492,-0.8354492,-0.82470703,-0.82470703,-0.82470703,-0.83691406,-0.83691406,-0.83203125,-0.83203125,-0.8417969,-0.8359375,-0.8339844,-0.8173828,-0.80615234,-0.82714844,-0.82714844,-0.81884766,-0.81884766,-0.81884766,-0.81591797,-0.81591797,-0.8125,-0.8232422,-0.8227539,-0.82470703,-0.81152344,-0.8173828,-0.82666016,-0.8432617,-0.84814453,-0.8564453,-0.8876953,-0.8959961,-0.89404297,-0.8833008,-0.8647461,-0.8354492,-0.7988281,-0.7607422,-0.6845703,-0.6376953,-0.60302734,-0.54003906,-0.5258789,-0.5258789,-0.48828125,-0.48828125,-0.48046875,-0.48046875,-0.48046875,-0.55566406,-0.55566406,-0.6152344,-0.65185547,-0.6879883,-0.7421875,-0.7421875,-0.7158203,-0.7158203,-0.8720703,-0.8720703,-0.93652344,-0.93652344,-0.93652344,-1.0458984,-1.0458984,-1.0112305,-1.0112305,-0.97802734,-1.0288086,-1.0581055,-1.0170898,-0.98535156,-1.0351563,-1.0351563,-1.0351563,-0.9326172,-0.9326172,-0.99072266,-0.99072266,-1.0776367,-1.0776367,-1.0776367,-0.98828125,-0.98828125,-0.84814453,-0.84814453,-0.84814453,-0.86621094,-0.9663086,-0.9975586,-0.92529297,-0.9692383,-0.9692383,-0.9692383,-0.86328125,-0.86328125,-0.8520508,-0.87158203,-0.87158203,-0.79589844,-0.79589844,-0.69189453,-0.5288086,-0.65527344,-0.65527344,-0.65527344,-0.56591797,-0.56591797,-0.5708008,-0.5708008,-0.5683594,-0.5683594,-0.5683594,-0.5908203,-0.5908203,-0.6538086,-0.6538086,-0.71728516,-0.73779297,-0.6870117,-0.6972656,-0.6972656,-0.73046875,-0.828125,-0.828125,-0.89746094,-0.94091797,-0.9116211,-0.87646484,-0.88427734,-0.88427734,-0.88427734,-0.8383789,-0.8354492,-0.8046875,-0.8046875,-0.79345703,-0.78515625,-0.7832031,-0.76708984,-0.76708984,-0.79589844,-0.7890625,-0.7890625,-0.7890625,-0.7890625,-0.73779297,-0.8095703,
circleCcw,0,1,-0.8491211,-0.8491211,-0.8491211,-0.8222656,-0.8222656,-0.81689453,-0.8129883,-0.8022461,-0.7939453,-0.8022461,-0.83154297,-0.83154297,-0.82958984,-0.8305664,-0.83203125,-0.8305664,-0.82910156,-0.8173828,-0.8173828,-0.82128906,-0.8198242,-0.6225586,-0.6225586,-0.6225586,-0.5263672,-1.1972656,-0.82910156,-0.8300781,-0.8300781,-0.8334961,-0.8334961,-0.8334961,-0.8208008,-0.8208008,-0.8720703,-0.8720703,-0.97802734,-0.97802734,-1.0976563,-1.0297852,-1.0297852,-1.0229492,-1.0029297,-0.9628906,-0.95654297,-0.8569336,-0.8569336,-0.7529297,-0.7529297,-0.5551758,-0.6694336,-0.6694336,-0.6694336,-0.5341797,-0.5341797,-0.49072266,-0.5083008,-0.4584961,-0.4584961,-0.61376953,-0.61376953,-0.61376953,-0.39013672,-0.39013672,-0.40673828,-0.48046875,-0.578125,-0.5854492,-0.5258789,-0.62890625,-0.62890625,-0.62890625,-0.5683594,-0.5683594,-0.67871094,-0.67871094,-0.7368164,-0.7368164,-0.74365234,-0.8129883,-0.8129883,-0.71777344,-0.71777344,-0.76953125,-0.8779297,-0.8779297,-0.90478516,-0.90478516,-0.87939453,-0.8378906,-0.8378906,-0.8022461,-0.75683594,-0.80126953,-0.8442383,-0.9057617,-0.9057617,-0.9057617,-0.9135742,-0.91552734,-0.89746094,-0.89746094,-1.046875,-1.046875,-1.046875,-0.9604492,-0.89746094,-0.8354492,-0.74072266,-0.66259766,-0.6401367,-0.5883789,-0.58935547,-0.58935547,-0.5473633,-0.5473633,-0.5473633,-0.5234375,-0.5234375,-0.46679688,-0.46679688,-0.55810547,-0.55810547,-0.55810547,-0.5444336,-0.59277344,-0.71191406,-0.71191406,-0.71191406,-0.79296875,-0.79296875,-0.82714844,-0.82714844,-0.7861328,-0.78564453,-0.78564453,-0.7993164,-0.7993164,-0.7885742,-0.7885742,-0.80322266,-0.80322266,-0.81103516,-0.8208008,-0.8046875,-0.7910156,-0.64453125,-0.64453125,-0.71240234,-0.7807617,-0.7402344,-0.7290039,-0.7402344,-0.7338867,-0.70751953,
left,0,2,-0.7939453,-0.7939453,-0.81152344,-0.81152344,-0.81152344,-0.81591797,-0.81591797,-0.8173828,-0.8227539,-0.8417969,-0.8330078,-0.8330078,-0.8432617,-0.8432617,-0.8339844,-0.8339844,-0.8388672,-0.8388672,-0.84228516,-0.82470703,-0.82470703,-0.8232422,-0.8232422,-0.81640625,-0.81591797,-0.8149414,-0.81640625,-0.81640625,-0.7963867,-0.7963867,-0.8046875,-0.80908203,-0.8046875,-0.80078125,-0.80078125,-0.8276367,-0.8100586,-0.80078125,-0.8071289,-0.8071289,-0.8413086,-0.8413086,-0.9379883,-0.9379883,-0.9760742,-0.9760742,-0.9760742,-0.9433594,-0.9433594,-1.0336914,-0.9995117,-0.9995117,-1.0952148,-1.0952148,-1.0639648,-0.99853516,-0.99853516,-0.8886719,-0.8886719,-0.7734375,-0.7734375,-0.7758789,-0.76171875,-0.76171875,-0.74121094,-0.74121094,-0.5463867,-0.5463867,-0.6503906,-0.6503906,-0.6503906,-0.6333008,-0.6333008,-0.6611328,-0.6611328,-0.7192383,-0.79345703,-0.79345703,-0.7949219,-0.7783203,-0.6801758,-0.6801758,-0.6796875,-0.68408203,-0.68408203,-0.6694336,-0.6694336,-0.7373047,-0.7373047,-0.79541016,-0.79541016,-0.79541016,-0.3623047,-0.3623047,-0.3623047,-1.1777344,-0.8496094,-0.7832031,-0.7788086,-0.7631836,-0.74365234,-0.74365234,-0.7392578,-0.7182617,-0.7426758,-0.7426758,-0.73779297,
right,0,2,-0.8442383,-0.8442383,-0.8442383,-0.80908203,-0.80908203,-0.8198242,-0.8198242,-0.7895508,-0.7895508,-0.7895508,-0.78808594,-0.7939453,-0.7885742,-0.7885742,-0.7729492,-0.7783203,-0.78808594,-0.7885742,-0.77685547,-0.7807617,-0.80029297,-0.80029297,-0.8046875,-0.8046875,-0.7963867,-0.7963867,-0.79589844,-0.79589844,-0.7988281,-0.66259766,-0.66259766,-0.64208984,-0.79589844,-0.80029297,-0.80029297,-0.80029297,-0.8076172,-0.8076172,-0.8017578,-0.78222656,-0.7734375,-0.7705078,-0.7705078,-0.77197266,-0.7817383,-0.7832031,-0.7832031,-0.7832031,-0.75439453,-0.75439453,-0.75,-0.73339844,-0.6855469,-0.6855469,-0.68115234,-0.69628906,-0.71484375,-0.71484375,-0.71484375,-0.7114258,-0.7114258,-0.70410156,-0.72216797,-0.7338867,-0.75390625,-0.78271484,-0.8041992,-0.78466797,-0.82666016,-0.84521484,-0.84521484,-0.84521484,-0.94091797,-0.90478516,-0.7788086,-0.7788086,-0.7788086,-0.7788086,-0.7739258,-1.0053711,-1.0053711,-1.0053711,-1.0053711,-1.0141602,-1.0292969,-1.0292969,-1.0292969,-1.0351563,-1.0317383,-1.0297852,-1.0537109,-1.0708008,-1.0708008,-0.98291016,-0.95410156,-0.95410156,-0.95410156,-0.95410156,-0.95166016,-0.94091797,-0.9243164,-0.91845703,-0.9194336,-0.9067383,-0.8886719,-0.9165039,-0.9165039,-0.9165039,-0.9238281,-0.921875,-0.921875,-0.921875,-0.9042969,-0.9042969,
up,0,2,-0.8227539,-0.8227539,-0.8227539,-0.8227539,-0.8227539,-0.8300781,-0.8334961,-0.82177734,-0.8310547,-0.84277344,-0.8461914,-0.83496094,-0.84033203,-0.83251953,-0.8364258,-0.8383789,-0.8383789,-0.83740234,-0.8364258,-0.83447266,-0.83447266,-0.8339844,-0.8339844,-0.8339844,-0.8334961,-0.8334961,-0.8276367,-0.82910156,-0.82128906,-0.8144531,-0.8125,-0.8066406,-0.8066406,-0.7919922,-0.7919922,-0.7963867,-0.8564453,-0.8564453,-0.9707031,-0.9707031,-1.203125,-1.5146484,-1.5146484,-1.5419922,-1.7397461,-1.9526367,-1.9526367,-1.9526367,-1.6005859,-1.6005859,-1.0854492,-1.0854492,-0.9370117,-0.7133789,-0.5439453,-0.44628906,-0.32763672,0.114746094,0.114746094,0.114746094,0.42626953,0.42626953,0.46875,0.46875,0.71533203,0.71533203,0.66796875,0.68896484,0.7163086,0.5996094,0.5996094,0.5698242,0.55566406,0.52001953,0.44189453,0.44189453,0.35595703,0.35595703,0.29785156,0.29785156,0.29785156,0.27490234,0.27490234,0.27246094,0.27246094,0.24853516,0.20703125,0.20703125,0.17871094,0.17871094,0.17675781,0.17675781,0.17675781,
down,0,2,-0.8041992,-1.1064453,-1.1064453,-1.1064453,-1.1064453,-1.1064453,-0.8378906,-0.8300781,-0.82177734,-0.82177734,-0.82177734,-0.8251953,-0.8222656,-0.81884766,-0.8359375,-0.8359375,-0.8535156,-0.8535156,-0.85791016,-0.85791016,-0.8413086,-0.8203125,-0.8125,-0.7944336,-0.7788086,-0.82177734,-0.82177734,-0.8261719,-0.82958984,-0.8276367,-0.8256836,-0.80615234,-0.8100586,-0.8100586,-0.83154297,-0.84472656,-0.84472656,-0.8354492,-0.8354492,-0.7963867,-0.7963867,-0.7963867,-0.71728516,-0.71728516,-0.5522461,-0.5522461,-0.087402344,-0.087402344,-0.087402344,-0.067871094,-0.067871094,-0.28564453,-0.28564453,-0.44726563,-0.7050781,-0.7050781,-0.7241211,-0.7241211,-0.76171875,-0.76171875,-0.74902344,-0.56689453,-0.56689453,-0.7036133,-0.7036133,-0.78027344,-0.78027344,-0.78027344,-0.8051758,-0.8051758,-0.88964844,-0.88964844,-0.55029297,-0.55029297,-0.53222656,-0.31640625,-0.25341797,-0.16503906,-0.13427734,-0.13427734,-0.14355469,-0.12597656,-0.10107422,-0.076171875,-0.115722656,-0.115722656,-0.115722656,-0.122558594,-0.12695313,-0.13964844,-0.13964844,-0.20166016,-0.20166016,-0.20410156,-0.16503906,-0.16503906,-0.16699219,-0.16699219,-0.1875,-0.1875,-0.1875,-0.1953125,-0.19482422,-0.203125,-0.203125,-0.203125,-0.18603516,-0.18603516,-0.1586914,-0.13183594,-0.13476563,-0.13476563,-0.13476563,
square,0,2,-0.74853516,-0.74853516,-0.74853516,-0.7451172,-0.7451172,-0.73876953,-0.73876953,-0.7241211,-0.7241211,-0.6665039,-0.6665039,-0.6665039,-0.6196289,-0.6489258,-0.6855469,-0.70703125,-0.7011719,-0.67333984,-0.67333984,-0.6821289,-0.70751953,-0.68603516,-0.6635742,-0.6635742,-0.69921875,-0.69921875,-0.72021484,-0.72021484,-0.72021484,-0.72802734,-0.72802734,-0.74316406,-0.74902344,-0.7709961,-0.7319336,-0.7319336,-0.7416992,-0.7416992,-0.6972656,-0.6972656,-0.6972656,-0.60595703,-0.60595703,-0.6425781,-0.6425781,-0.6113281,-0.5161133,-0.4794922,-0.4033203,-0.4033203,-0.45263672,-0.5107422,-0.6196289,-0.6669922,-0.72021484,-1.0410156,-1.0410156,-1.0410156,-1.0410156,-1.1181641,-1.1806641,-1.2265625,-1.2265625,-1.2265625,-1.2597656,-1.2597656,-1.1665039,-1.0478516,-1.0478516,-1.0185547,-1.0185547,-0.9921875,-0.9194336,-0.87353516,-0.8979492,-0.8979492,-0.7963867,-0.7963867,-0.7963867,-0.7817383,-0.84277344,-0.85302734,-0.8569336,-0.79833984,-0.74560547,-0.7636719,-0.8105469,-0.8105469,-0.7792969,-0.70751953,-0.5576172,-0.5576172,-0.5576172,-0.5390625,-0.50927734,-0.52783203,-0.53515625,-0.5888672,-0.5888672,-0.5888672,-0.6040039,-0.6328125,-0.7163086,-0.7163086,-0.81933594,-0.8911133,-1.003418,-1.0727539,-1.1230469,-1.4458008,-1.4458008,-1.4384766,-1.3569336,-1.3793945,-1.2148438,-1.2148438,-1.1342773,-1.1171875,-0.9770508,-0.6699219,-0.6699219,-0.7441406,-0.84814453,-0.2944336,-0.15136719,-0.81884766,-0.13330078,-0.13330078,-0.39160156,-0.39160156,-0.4008789,-0.51904297,-0.51904297,-0.6640625,-0.6640625,-0.73046875,-0.77490234,-0.77490234,-0.77734375,-0.77734375,-0.76708984,-0.76708984,-0.76708984,-0.75146484,-0.75390625,-0.73583984,-0.72509766,-0.8208008,-0.8208008,-0.8208008,-0.8232422,-0.7675781,-0.76416016,-0.7714844,-0.8330078,-0.8330078,-0.8330078,-0.8154297,-0.8154297,-0.79785156,-0.83203125,-0.83203125,-0.7792969,-0.7792969,-0.7734375,-0.7734375,-0.79541016,-0.79541016,-0.79541016,-0.7998047,-0.8022461,-0.7949219,-0.7919922,-0.7836914,-0.78564453,-0.7583008,-0.7583008,-0.75146484,-0.8544922,-0.8544922,-0.7626953,-0.7285156,-0.75390625,-0.76220703,-0.76220703,-0.7685547,-0.76660156,-0.74560547,-0.7558594,-0.7558594,
triangle,0,2,-0.74560547,-0.74560547,-0.74560547,-0.75146484,-0.75146484,-0.7602539,-0.7602539,-0.95166016,-0.81396484,-0.81396484,-0.74902344,-0.74902344,-0.7578125,-0.7578125,-0.7578125,-0.74658203,-0.74658203,-0.74365234,-0.75146484,-0.7416992,-0.7416992,-0.7416992,-0.7373047,-0.7373047,-0.71240234,-0.71240234,-0.70214844,-0.70214844,-0.6459961,-0.6459961,-0.6459961,-0.7729492,-0.7421875,-0.6020508,-0.3647461,-0.3647461,-0.3642578,-0.3642578,-0.35546875,-0.3540039,-0.34960938,-0.3305664,-0.3305664,-0.68310547,-0.68310547,-0.68310547,-0.70654297,-0.70654297,-0.76708984,-0.87939453,-0.95996094,-1.1186523,-1.1186523,-1.1225586,-1.1225586,-0.99316406,-0.99072266,-1.0913086,-1.0913086,-1.0913086,-1.1123047,-1.1123047,-0.8911133,-0.8911133,-0.8911133,-0.76708984,-0.76708984,-0.7919922,-0.7919922,-0.63671875,-0.63671875,-0.63671875,-0.74121094,-0.63964844,-0.6171875,-0.6171875,-0.61279297,-0.61279297,-0.61279297,-0.57128906,-0.55371094,-0.39794922,-0.39794922,-0.39794922,-0.39794922,-0.39794922,-0.48583984,-0.5805664,-0.8852539,-0.8852539,-0.8852539,-1.0380859,-1.0380859,-1.1005859,-1.1005859,-1.1259766,-1.1259766,-1.1259766,-1.152832,-1.1171875,-1.0263672,-1.0263672,-0.9316406,-0.74658203,-0.74658203,-0.4868164,-0.4868164,-0.5517578,-0.5517578,-0.5517578,-0.4501953,-0.40234375,-0.4580078,-0.44970703,-0.4946289,-0.4946289,-0.5136719,-0.5307617,-0.57421875,-0.66015625,-0.69433594,-0.71484375,-0.7363281,-0.7363281,-0.77685547,-0.77685547,-0.80371094,-0.81152344,-0.81152344,-0.78125,-0.76220703,-0.71728516,-0.71728516,-0.7216797,-0.7216797,-0.7216797,-0.7373047,-0.7373047,-0.7470703,-0.7470703,-0.7470703,
circleCw,0,2,-0.7553711,-0.7553711,-0.7553711,-0.7607422,-0.7607422,-0.75878906,-0.75878906,-0.7607422,-0.7558594,-0.7573242,-0.7636719,-0.7636719,-0.76660156,-0.76660156,-0.7758789,-0.7758789,-0.77783203,-0.77734375,-0.7783203,-0.78222656,-0.78222656,-0.78222656,-0.7675781,-0.7651367,-0.7705078,-0.7705078,-0.77197266,-0.77197266,-0.77197266,-0.7729492,-0.7729492,-0.76171875,-0.76171875,-0.7583008,-0.7626953,-0.7705078,-0.78515625,-0.7866211,-0.7788086,-0.7788086,-0.7788086,-0.7758789,-0.8149414,-0.83935547,-0.84033203,-0.7836914,-0.7836914,-0.7836914,-0.72509766,-0.65527344,-0.6142578,-0.6142578,-0.6347656,-0.66064453,-0.66064453,-0.7216797,-0.7216797,-0.72314453,-0.72998047,-0.72314453,-0.7167969,-0.71972656,-0.7734375,-0.7636719,-0.8623047,-0.8286133,-0.86572266,-0.7001953,-0.6347656,-0.6347656,-0.6347656,-0.31054688,-0.31054688,-0.31054688,-0.31054688,-0.31054688,-0.15136719,-0.18066406,-0.18066406,-0.18066406,-0.2529297,-0.36083984,-0.45458984,-0.77490234,-0.77490234,-0.77490234,-0.7939453,-1.0795898,-1.0795898,-1.0795898,-1.0795898,-1.0795898,-1.1850586,-1.1845703,-1.1845703,-1.1845703,-1.1845703,-1.1103516,-1.1103516,-0.9121094,-0.95996094,-0.95996094,-0.95996094,-0.97021484,-0.97021484,-0.9790039,-0.9790039,-0.9790039,-0.9790039,-0.9790039,-1.0449219,-1.0449219,-1.0449219,-1.0449219,-1.0449219,-0.90283203,-0.90283203,-0.90283203,-0.65185547,-0.7890625,-0.7451172,-0.6459961,-0.57177734,-0.57177734,-0.49560547,-0.49560547,-0.49560547,-0.49560547,-0.5839844,-0.68310547,-0.68310547,-0.68310547,-0.68310547,-0.7363281,-0.7363281,-0.7495117,-0.7495117,-0.7495117,-0.90722656,-0.90722656,-0.9296875,-0.92871094,-0.92871094,-0.8774414,-0.8774414,-0.80859375,-0.80859375,-0.7939453,-0.7939453,-0.7939453,-0.78027344,-0.78027344,-0.8256836,-0.8222656,
circleCcw,0,2,-0.8071289,-0.8071289,-0.8071289,-0.8071289,-0.8071289,-0.80810547,-0.80810547,-0.80810547,-0.91748047,-0.91748047,-0.8071289,-0.8071289,-0.80566406,-0.80566406,-0.79833984,-0.79833984,-0.79833984,-0.80078125,-0.80078125,-0.81689453,-0.79541016,-0.79541016,-0.8076172,-0.8120117,-0.8154297,-0.8017578,-0.79296875,-0.7993164,-0.8203125,-0.796875,-0.796875,-0.7763672,-0.83984375,-0.73828125,-0.8183594,-0.8720703,-0.9941406,-1.0776367,-1.1157227,-1.0708008,-0.94921875,-0.9091797,-0.9091797,-0.96728516,-0.9741211,-0.95654297,-0.94189453,-0.6069336,-0.6069336,-0.6069336,-0.7089844,-0.7089844,-0.47460938,-0.47460938,-0.47460938,-0.39111328,-0.39111328,-0.3466797,-0.33544922,-0.3623047,-0.3623047,-0.3623047,-0.46191406,-0.46191406,-0.5751953,-0.5751953,-0.5751953,-0.6513672,-0.8105469,-0.76416016,-0.76416016,-0.7167969,-0.7167969,-1.2177734,-1.2177734,-0.7158203,-0.7158203,-0.7158203,-1.237793,-0.9560547,-0.9560547,-0.89990234,-0.9375,-0.79785156,-0.79785156,-0.79785156,-0.7558594,-0.7558594,-0.8046875,-0.8046875,-0.94677734,-0.94677734,-0.94677734,-1.0488281,-0.9628906,-0.7836914,-0.7836914,-0.91308594,-0.91308594,-0.92285156,-0.8432617,-0.8432617,-0.8618164,-0.81152344,-0.93115234,-1.0161133,-0.6611328,-0.76708984,-0.76708984,-0.78564453,-0.76708984,-0.68603516,-0.5517578,-0.5517578,-0.51464844,-0.51464844,-0.55126953,-0.55126953,-0.5605469,-0.5415039,-0.54345703,-0.5673828,-0.5673828,-0.6635742,-0.6635742,-0.70703125,-0.8071289,-0.8071289,-0.83935547,-0.69921875,-0.69921875,-0.69921875,-0.69921875,-1.2773438,-0.6972656,-0.81347656,-0.81347656,-0.81347656,-0.85253906,-0.85253906,-0.83496094,-0.83496094,-0.84277344,-0.85498047,-0.85498047,-0.8598633,-0.8598633,-0.86621094,-0.85058594,-0.85058594,-0.85058594,-0.85058594,-0.83496094,
left,0,3,-0.8222656,-0.8222656,-0.9248047,-0.9248047,-0.9248047,-0.9248047,-0.9248047,-0.9248047,-0.7451172,-0.7451172,-0.82177734,-0.82177734,-0.82177734,-0.828125,-0.828125,-0.80908203,-0.80908203,-0.82666016,-0.82666016,-0.82666016,-0.81640625,-0.81640625,-0.81933594,-0.81933594,-0.8208008,-0.8208008,-0.8208008,-0.8364258,-0.83740234,-0.83251953,-0.83251953,-0.62841797,-0.62841797,-0.62841797,-0.7607422,-0.7607422,-0.8334961,-0.8334961,-0.8334961,-0.9692383,-0.9692383,-1.1518555,-1.1518555,-1.0336914,-0.7753906,-0.7753906,-1.1264648,-1.1264648,-1.1416016,-1.1416016,-1.1464844,-1.1464844,-1.1464844,-0.9975586,-0.86083984,-0.7192383,-0.6870117,-0.7084961,-0.5444336,-0.5444336,-0.5185547,-0.59716797,-0.65234375,-0.65234375,-0.65234375,-0.66064453,-0.4609375,-0.4609375,-0.4609375,-0.72802734,-0.72802734,-0.72802734,-0.60839844,-0.60839844,-0.6928711,-0.6928711,-0.6928711,-0.6777344,-0.6533203,-0.6845703,-0.6640625,-0.68896484,-0.68896484,-0.68896484,-0.6870117,-0.6870117,-0.72314453,-0.72314453,-0.6850586,-0.6850586,-0.75341797,-0.75341797,-0.75341797,
right,0,3,-0.7866211,-0.7866211,-0.765625,-0.765625,-0.76953125,-0.76953125,-0.7680664,-0.76464844,-0.76464844,-0.76220703,-0.7651367,-0.7661133,-0.77685547,-0.77685547,-0.7685547,-0.7685547,-0.77197266,-0.77197266,-0.7817383,-0.7841797,-0.7807617,-0.7729492,-0.77246094,-0.7705078,-0.77001953,-0.7709961,-0.7792969,-0.7753906,-0.78125,-0.78125,-0.7753906,-0.7783203,-0.7758789,-0.7753906,-0.7675781,-0.7192383,-0.7192383,-0.7192383,-0.72265625,-0.67822266,-0.63134766,-0.58496094,-0.6538086,-0.66552734,-0.66552734,-0.6508789,-0.6147461,-0.6230469,-0.61328125,-0.75683594,-0.75683594,-0.75683594,-0.8095703,-0.8095703,-0.82128906,-0.82128906,-0.88183594,-0.88183594,-0.88183594,-0.74316406,-0.74316406,-0.7290039,-0.94091797,-0.94091797,-1.1791992,-1.1791992,-1.1635742,-1.1635742,-1.1762695,-1.1040039,-1.1040039,-1.0737305,-1.0737305,-1.0541992,-1.0541992,-0.9736328,-0.95751953,-0.95751953,-0.9526367,-0.94921875,-0.87890625,-0.87890625,-0.8457031,-0.8378906,-0.8520508,-1.0068359,-1.0068359,-1.0600586,-0.90283203,-0.90283203,-0.8798828,-0.8798828,-0.85791016,-0.85791016,-0.85791016,-0.86083984,-0.86083984,-0.85498047,-0.85498047,
up,0,3,-0.8745117,-0.8745117,-0.796875,-0.796875,-0.796875,-0.8125,-0.8496094,-0.875,-0.88427734,-0.87353516,-0.9067383,-0.7294922,-0.65283203,-1.21875,-0.41845703,-1.0771484,-0.8666992,-0.86865234,-0.86376953,-0.85058594,-0.8466797,-0.8432617,-0.8515625,-0.8515625,-0.8515625,-0.85498047,-0.8388672,-0.8232422,-0.83496094,-0.8300781,-0.8300781,-0.79589844,-0.79589844,-0.79589844,-0.79589844,-0.79589844,-0.79589844,-1.4711914,-1.4711914,-1.4711914,-1.7949219,-1.7949219,-1.4287109,-1.8447266,-1.9389648,-1.8808594,-1.6728516,-1.4560547,-1.230957,-1.074707,-0.9667969,-0.7949219,-0.7026367,-0.5654297,-0.4194336,-0.13769531,-0.13769531,0.42333984,0.42333984,0.42333984,0.42333984,0.6088867,0.72509766,0.8100586,0.8100586,0.8100586,0.8100586,0.70703125,0.69970703,0.69970703,0.69970703,0.69970703,0.6484375,0.4711914,0.4711914,0.4711914,0.43945313,0.43945313,0.43945313,0.40478516,0.37353516,0.37109375,0.3466797,0.3076172,0.29833984,0.28955078,0.2685547,0.2685547,
down,0,3,-0.91064453,-0.91064453,-0.91064453,-0.91064453,-0.91064453,-0.78808594,-0.78808594,-0.85546875,-0.8520508,-0.8466797,-0.8618164,-0.8618164,-0.8647461,-0.90234375,-0.9824219,-0.84814453,-0.84814453,-0.82177734,-0.82177734,-0.8334961,-0.8334961,-0.8334961,-0.8232422,-0.8232422,-0.8417969,-0.8417969,-0.8540039,-0.8540039,-0.8378906,-0.83740234,-0.83740234,-0.85058594,-0.8515625,-0.84033203,-0.84033203,-0.84765625,-0.80908203,-0.93359375,-0.7788086,-0.63427734,-0.5283203,-0.2998047,-0.24804688,-0.24804688,-0.24804688,-0.28271484,-0.28271484,-0.32080078,-0.43310547,-0.43310547,-0.4790039,-0.4790039,-0.6274414,-0.6274414,-0.6274414,-0.6694336,-0.6694336,-0.71240234,-0.7988281,-0.77197266,-0.77197266,-0.6489258,-0.5073242,-0.47314453,-0.66259766,-0.6777344,-0.6777344,-0.60253906,-0.60253906,-0.55810547,-0.56640625,-0.47070313,-0.47070313,-0.3828125,-0.19873047,-0.19873047,-0.16015625,-0.107421875,-0.03857422,-0.011230469,0.022949219,0.14550781,0.14550781,0.15966797,0.17089844,0.18164063,0.13427734,0.13427734,0.13427734,0.13427734,0.033203125,0.033203125,0.033203125,-0.029785156,-0.029785156,-0.029785156,-0.032714844,
square,0,3,-0.7470703,-0.7470703,-0.7504883,-0.7504883,-0.7373047,-0.7373047,-0.75,-0.73339844,-0.97753906,-0.97753906,-0.7475586,-0.76464844,-0.76464844,-0.76123047,-0.7758789,-0.7758789,-0.7783203,-0.77734375,-0.7714844,-0.7734375,-0.78125,-0.7626953,-0.7602539,-0.76123047,-0.7602539,-0.7602539,-0.7626953,-0.7626953,-0.75390625,-0.7451172,-0.7368164,-0.7055664,-0.7055664,-0.85498047,-1.0029297,-0.6826172,-0.6826172,-0.6826172,-0.6791992,-0.68652344,-0.6928711,-0.6748047,-0.65966797,-0.65966797,-0.65966797,-0.6464844,-0.62158203,-0.59521484,-0.59521484,-0.59521484,-0.62646484,-0.62646484,-0.69628906,-0.69628906,-0.7236328,-0.7368164,-0.7368164,-0.75,-0.75,-0.7529297,-0.7529297,-0.7529297,-0.69189453,-0.69189453,-0.6850586,-0.6850586,-0.6713867,-0.6713867,-0.6713867,-0.7368164,-0.70458984,-0.5498047,-0.5498047,-0.5239258,-0.5239258,-0.5888672,-0.84716797,-0.84716797,-0.8442383,-0.8442383,-0.8144531,-1.4711914,-0.8417969,-1.2441406,-1.2441406,-1.2602539,-1.2226563,-1.1411133,-1.1411133,-1.1411133,-1.0991211,-1.0991211,-0.9472656,-0.9472656,-0.9472656,-0.94433594,-0.94433594,-0.93603516,-0.93603516,-0.9165039,-0.89697266,-0.89697266,-0.92041016,-0.8461914,-0.6723633,-0.62109375,-0.62109375,-0.58935547,-0.546875,-0.546875,-0.5629883,-0.52197266,-0.52197266,-0.52197266,-0.54003906,-0.5883789,-0.64501953,-0.64501953,-0.7832031,-0.7832031,-0.7832031,-0.8769531,-0.8769531,-0.82910156,-1.0078125,-1.2270508,-1.2919922,-1.2919922,-1.3442383,-1.3442383,-1.2290039,-1.2290039,-1.0317383,-1.0317383,-0.9848633,-0.88916016,-0.5625,-0.62060547,-0.62060547,-0.84033203,-0.84033203,-0.15283203,-0.43701172,-0.43701172,-0.43701172,-0.46826172,-0.5185547,-0.59716797,-0.59716797,-0.7089844,-0.7089844,-0.7104492,-0.7636719,-0.7636719,-0.76416016,-0.74121094,-0.7558594,-0.7558594,-0.76953125,-0.72021484,-0.72021484,-0.73046875,-0.6748047,-0.6894531,-0.60791016,-1.2172852,-1.2172852,-1.2172852,-0.80566406,-0.80566406,-0.80566406,-0.8125,-0.8027344,-0.7910156,-0.80615234,-0.80615234,-0.80615234,-0.80615234,-0.8364258,-0.8364258,-0.78759766,-0.78759766,-0.78759766,-0.78759766,-0.78759766,-0.7949219,-0.7939453,-0.77441406,-0.77441406,-0.8041992,-0.8041992,-0.6586914,-0.5961914,-0.5961914,-0.7709961,-0.7709961,-0.7709961,-0.7651367,-0.75634766,-0.7451172,-0.7451172,-0.77783203,-0.7792969,-0.7792969,
triangle,0,3,-0.7607422,-0.7607422,-0.7495117,-0.7495117,-0.7495117,-0.7495117,-0.7495117,-0.75634766,-0.75634766,-0.7573242,-0.7573242,-0.7573242,-0.7519531,-0.7519531,-0.76171875,-0.7583008,-0.7583008,-0.7685547,-0.7685547,-0.76708984,-0.7626953,-0.7709961,-0.7709961,-0.76123047,-0.75634766,-0.7631836,-0.77197266,-0.91308594,-0.7573242,-0.7573242,-0.7573242,-0.74853516,-0.7402344,-0.7402344,-0.7402344,-0.7402344,-0.73095703,-0.7294922,-0.7167969,-0.6850586,-0.50097656,-0.50097656,-0.50097656,-0.4633789,-0.44433594,-0.42529297,-0.41259766,-0.38623047,-0.4038086,-0.4038086,-0.42822266,-0.48828125,-0.5649414,-0.6298828,-0.67578125,-0.69921875,-0.7001953,-0.84716797,-0.84716797,-0.921875,-0.9477539,-1.0541992,-1.0932617,-1.0932617,-1.0458984,-1.0458984,-1.0141602,-0.95410156,-0.92822266,-0.92822266,-0.88720703,-0.6958008,-0.6958008,-0.6972656,-0.6972656,-0.6972656,-0.5625,-1.1020508,-1.2514648,-1.2436523,-1.2871094,-0.9848633,-0.77783203,-0.83447266,-0.75146484,-0.7338867,-0.83154297,-0.83154297,-0.8730469,-0.8540039,-0.77246094,-0.77246094,-0.6118164,-0.6118164,-0.6118164,-0.6118164,-0.6118164,-0.5566406,-0.6538086,-0.6538086,-0.80371094,-0.80371094,-1.0385742,-1.0385742,-1.3007813,-1.3007813,-1.3007813,-1.378418,-1.378418,-1.3481445,-1.25,-1.1367188,-1.1367188,-1.1176758,-1.1176758,-1.1176758,-0.5625,-1.0375977,-1.0375977,-0.28466797,-0.28466797,-0.75,-0.79833984,-0.45898438,-0.43554688,-0.43554688,-0.47558594,-0.4921875,-0.49560547,-0.50634766,-0.61865234,-0.61865234,-0.61865234,-0.6777344,-0.6777344,-0.75097656,-0.75097656,-0.75097656,-0.77490234,-0.73046875,-0.73046875,-0.73046875,-0.7114258,-0.71728516,-0.71728516,-0.7446289,-0.7446289,-0.7446289,-0.7319336,-0.7167969,-0.7167969,-0.68115234,-0.68115234,-0.68115234,-0.69384766,-0.69384766,
circleCw,0,3,-0.80029297,-0.82177734,-0.82177734,-0.82177734,-0.75439453,-0.75439453,-0.75439453,-0.7885742,-0.78564453,-0.75927734,-0.78564453,-0.8071289,-0.8071289,-0.8071289,-0.81347656,-0.8388672,-0.8901367,-0.8540039,-0.7753906,-0.73535156,-0.75341797,-0.82910156,-0.8261719,-0.8261719,-0.79589844,-0.79589844,-0.76708984,-0.76708984,-0.81884766,-0.7988281,-0.82666016,-0.82666016,-0.81347656,-0.8339844,-0.7866211,-0.7866211,-0.7714844,-0.75927734,-0.625,-0.625,-0.625,-0.6665039,-0.72998047,-0.6875,-0.6875,-0.58496094,-0.58496094,-0.54785156,-0.47558594,-0.45263672,-0.4248047,-0.4038086,-0.4638672,-0.4638672,-0.4638672,-0.50878906,-0.5083008,-0.52197266,-0.4946289,-0.58154297,-0.7524414,-0.7524414,-0.8984375,-0.8984375,-0.94140625,-0.94140625,-0.94140625,-0.9472656,-0.9472656,-0.9584961,-0.99121094,-0.93652344,-0.93652344,-0.93652344,-1.2163086,-1.2163086,-1.1489258,-1.1889648,-1.2739258,-1.2739258,-1.2177734,-1.1586914,-1.1586914,-1.0244141,-1.0244141,-1.0244141,-0.99853516,-0.99853516,-0.9741211,-0.99365234,-1.0654297,-1.2744141,-1.2744141,-1.1635742,-1.1635742,-0.8261719,-0.8261719,-0.8261719,-0.87353516,-0.87353516,-0.8178711,-0.7758789,-0.73779297,-0.72998047,-0.72998047,-0.5649414,-0.5649414,-0.51220703,-0.51220703,-0.3955078,-0.3955078,-0.39746094,-0.40771484,-0.40185547,-0.41601563,-0.51220703,-0.51220703,-0.61572266,-0.61572266,-0.66845703,-0.6875,-0.6982422,-0.76123047,-0.76123047,-0.7402344,-0.7402344,-0.7089844,-0.6660156,-0.7192383,-0.7988281,-0.89160156,-0.88134766,-0.88134766,-0.8754883,-0.8754883,-0.84033203,-0.84033203,-0.82958984,-0.7758789,-0.7758789,-0.796875,-0.796875,
circleCcw,0,3,-0.81640625,-0.81640625,-0.81640625,-0.81640625,-0.81640625,-0.8173828,-0.8173828,-0.8173828,-0.8222656,-0.8222656,-0.8203125,-0.81152344,-0.81933594,-0.82421875,-0.8129883,-0.8129883,-0.8129883,-0.8149414,-0.81591797,-0.8178711,-0.8144531,-0.8076172,-0.8149414,-0.8100586,-0.8178711,-0.8178711,-0.8178711,-0.81103516,-0.8100586,-0.8076172,-0.8076172,-0.8051758,-0.79833984,-0.8027344,-0.8100586,-0.8183594,-0.8183594,-0.8183594,-0.79785156,-0.8925781,-0.98291016,-0.8129883,-0.8129883,-0.8149414,-0.83154297,-0.83154297,-0.9165039,-0.9165039,-0.99316406,-0.99316406,-0.9941406,-1.0180664,-0.9951172,-0.94921875,-0.94921875,-0.87402344,-0.87402344,-0.81396484,-0.7558594,-0.6772461,-0.6772461,-0.6508789,-0.5917969,-0.5917969,-0.5703125,-0.5703125,-0.5703125,-0.5673828,-0.5673828,-0.5805664,-0.55615234,-0.55615234,-0.55029297,-0.57714844,-0.6254883,-0.6899414,-0.65625,-0.65966797,-0.65966797,-0.75146484,-0.75146484,-0.6821289,-0.6484375,-0.54052734,-0.6245117,-0.6245117,-0.6074219,-0.69384766,-0.6464844,-0.74902344,-0.7631836,-0.7578125,-0.7363281,-0.8666992,-0.8666992,-0.9067383,-0.9067383,-0.8496094,-0.8540039,-0.8540039,-0.82958984,-0.7475586,-0.61865234,-0.61865234,-0.5854492,-0.6196289,-0.64404297,-0.6977539,-0.6977539,-0.71191406,-0.7207031,-0.7597656,-0.81591797,-0.81591797,-0.85009766,-0.87890625,-0.87890625,-0.9555664,-0.95410156,-0.8876953,-0.8876953,-0.87060547,-0.87060547,-0.87060547,-0.94970703,-0.94970703,-0.8847656,-0.8847656,-0.8100586,-0.7421875,-0.7421875,-0.68603516,-0.68408203,-0.65185547,-0.65185547,-0.65185547,-0.66015625,-0.66015625,-0.66308594,-0.66308594,-0.6328125,-0.6328125,-0.6328125,-0.4794922,-0.48388672,-0.5395508,-0.56884766,-0.78564453,-0.9736328,-0.8300781,-0.47851563,-0.57958984,-0.6699219,-0.70214844,-0.71972656,-0.68115234,-0.6723633,-0.7138672,-0.7314453,-0.73046875,-0.74121094,-0.7446289,-0.72021484,-0.72021484,-0.7441406,-0.7441406,-0.7558594,-0.7558594,-0.7558594,-0.80908203,-0.80908203,
left,0,4,-0.8071289,-0.8071289,-0.8071289,-0.8071289,-0.8100586,-0.8144531,-0.8144531,-0.79785156,-0.8144531,-0.8071289,-0.8071289,-0.7988281,-0.8076172,-0.8051758,-0.8022461,-0.8149414,-0.8149414,-0.8149414,-0.46728516,-0.46728516,-0.46728516,-1.128418,-0.8100586,-0.8100586,-0.8154297,-0.8154297,-0.8046875,-0.8046875,-0.78466797,-0.78466797,-0.7866211,-0.78759766,-0.7944336,-0.79296875,-0.7919922,-0.78222656,-0.78222656,-0.78222656,-0.78027344,-0.78027344,-0.80566406,-0.80566406,-0.8618164,-0.9433594,-0.9433594,-0.9433594,-0.9433594,-0.9814453,-0.9814453,-0.97753906,-1.0048828,-1.0048828,-0.9770508,-0.9770508,-0.8847656,-0.8847656,-0.8847656,-0.9111328,-0.96191406,-0.96191406,-0.90185547,-0.6879883,-0.6879883,-0.6879883,-0.6953125,-0.78466797,-0.79345703,-0.79345703,-0.7866211,-0.6611328,-0.5449219,-0.59716797,-0.59716797,-0.6665039,-0.63378906,-0.63378906,-0.64746094,-0.64746094,-0.61035156,-0.61035156,-0.796875,-0.796875,-0.796875,-0.84277344,-0.84277344,-0.65722656,-0.65722656,-0.35595703,-0.35595703,-0.9213867,-0.7036133,-0.71533203,-0.7685547,-0.7685547,-0.7685547,-0.73583984,-0.74316406,-0.73095703,-0.73095703,-0.73095703,-0.73095703,-0.73095703,
right,0,4,-0.89941406,-0.89941406,-0.89941406,-0.7973633,-0.7973633,-0.7636719,-0.7636719,-0.76953125,-0.76953125,-0.76953125,-0.76171875,-0.76171875,-0.7626953,-0.76416016,-0.76708984,-0.75878906,-0.75878906,-0.76220703,-0.7661133,-0.77197266,-0.765625,-0.7597656,-0.7739258,-0.74658203,-0.74658203,-0.74658203,-0.61328125,-0.61328125,-0.61328125,-0.7495117,-0.7495117,-0.65966797,-0.65966797,-0.65966797,-0.6660156,-0.6660156,-0.6274414,-0.6352539,-0.5957031,-0.6245117,-0.6245117,-0.5493164,-0.5493164,-0.55859375,-0.59814453,-0.6503906,-0.68603516,-0.68603516,-0.77978516,-0.9116211,-0.94140625,-0.94140625,-0.95458984,-0.79052734,-0.79052734,-1.0141602,-1.0141602,-1.1835938,-1.1835938,-1.1835938,-0.9692383,-0.9692383,-0.9589844,-0.9589844,-1.0043945,-0.92529297,-0.92529297,-0.95458984,-0.95458984,-0.89160156,-0.89160156,-0.921875,-0.921875,-0.921875,-0.9160156,-0.9160156,-0.8613281,-0.8613281,-0.8017578,-0.8017578,-0.8017578,-0.4638672,-0.4638672,-0.4638672,-0.4638672,-0.4638672,-0.8413086,-0.8413086,-0.8144531,-0.8144531,-0.81933594,-0.84765625,-0.84765625,-0.87646484,-0.85498047,-0.8461914,-0.8461914,-0.8461914,-0.82470703,-0.82470703,
up,0,4,-0.81884766,-0.81884766,-0.85498047,-0.85498047,-0.85498047,-0.8120117,-0.81152344,-0.8256836,-0.8330078,-0.84814453,-0.8383789,-0.83496094,-0.76708984,-0.76708984,-0.6166992,-0.6166992,-0.6166992,-0.82910156,-0.84472656,-0.8496094,-0.8496094,-0.84277344,-0.85009766,-0.83496094,-0.828125,-0.8339844,-0.8251953,-0.8251953,-0.8251953,-0.8256836,-0.8256836,-0.81884766,-0.82128906,-0.81103516,-0.81103516,-0.8027344,-0.85009766,-0.68896484,-0.51904297,-0.9399414,-0.86035156,-1.2954102,-1.2954102,-1.5576172,-1.5576172,-1.8325195,-1.8325195,-1.9326172,-1.9448242,-1.7192383,-1.465332,-1.2412109,-0.9746094,-0.79589844,-0.6738281,-0.40234375,-0.40234375,-0.17236328,-0.17236328,-0.08984375,0.040039063,0.23632813,0.29833984,0.29833984,0.42041016,0.42041016,0.5073242,0.5073242,0.5073242,0.515625,0.48486328,0.3876953,0.3876953,0.3359375,0.3022461,0.3022461,0.24853516,0.24853516,0.21777344,0.21777344,0.18261719,0.13427734,0.13427734,0.13427734,0.13427734,0.13720703,0.13720703,0.13720703,0.13427734,0.12646484,0.09472656,0.119140625,0.107421875,0.114746094,0.114746094,0.09082031,0.09082031,0.09375,0.09375,0.09375,0.099121094,0.099121094,0.07470703,
down,0,4,-0.7871094,-0.7871094,-0.7871094,-0.7890625,-0.7890625,-0.76904297,-0.76904297,-0.77734375,-0.78759766,-0.79345703,-0.80615234,-0.80615234,-0.79833984,-0.8466797,-0.4814453,-1.125,-1.125,-0.38476563,-1.090332,-1.1508789,-0.5673828,-0.5673828,-0.5600586,-0.7753906,-0.7807617,-0.7807617,-0.79052734,-0.79052734,-0.79052734,-0.7841797,-0.7841797,-0.80126953,-0.80126953,-0.80029297,-0.7963867,-0.7963867,-0.7866211,-0.7866211,-0.7685547,-0.7421875,-0.58935547,-0.58935547,-0.58935547,-0.43066406,-0.30029297,-0.06298828,-0.06298828,-0.06298828,-0.13134766,-0.21777344,-0.42822266,-0.42822266,-0.58154297,-0.58154297,-0.58154297,-0.6850586,-0.6850586,-0.79248047,-0.88964844,-0.69433594,-0.69433594,-0.69433594,-0.69433594,-0.69433594,-0.87841797,-0.87841797,-0.87841797,-0.7392578,-0.7392578,-0.7001953,-0.7001953,-0.734375,-0.68408203,-0.68408203,-0.30908203,-0.30908203,-0.1875,-0.106933594,0.06298828,0.06298828,0.06298828,-0.0146484375,-0.0146484375,0.037597656,0.037597656,0.037597656,0.0859375,0.0859375,0.07080078,0.08105469,0.059570313,0.059570313,0.059570313,-0.020019531,-0.020019531,-0.047851563,-0.047851563,-0.13330078,-0.13330078,-0.13330078,-0.13183594,-0.13671875,
square,0,4,-0.79345703,-0.79345703,-0.79345703,-0.78808594,-0.78808594,-0.8027344,-0.8027344,-0.80810547,-0.80029297,-0.7338867,-0.6411133,-0.6411133,-0.78808594,-0.78808594,-0.78808594,-0.7963867,-0.79003906,-0.796875,-0.79003906,-0.7895508,-0.7836914,-0.77685547,-0.7792969,-0.7792969,-0.74658203,-0.74658203,-0.6171875,-0.6171875,-0.6171875,-0.6171875,-0.5859375,-0.58447266,-0.58447266,-0.6791992,-0.7871094,-0.8618164,-0.84765625,-0.84765625,-0.7734375,-0.7734375,-0.7734375,-0.7807617,-0.7807617,-0.75341797,-0.75341797,-0.6894531,-0.6894531,-0.6894531,-0.6894531,-0.6894531,-0.54589844,-0.54589844,-0.54589844,-0.54589844,-0.54589844,-0.54589844,-0.484375,-0.5551758,-0.5551758,-0.5551758,-0.7138672,-0.7138672,-0.7138672,-0.87060547,-0.87060547,-0.8808594,-1.6689453,-1.6689453,-1.6689453,-1.6689453,-1.0849609,-1.7163086,-1.7163086,-1.7163086,-1.7163086,-0.7104492,-0.7104492,-1.5493164,-1.5493164,-0.63671875,-1.3710938,-1.4067383,-1.4067383,-1.4067383,-1.4067383,-1.2636719,-0.91845703,-0.91845703,-0.91845703,-0.91845703,-0.77490234,-0.77490234,-0.77490234,-0.77490234,-0.77490234,-0.7290039,-0.79003906,-0.796875,-0.796875,-0.85595703,-0.890625,-0.890625,-0.9506836,-0.9814453,-1.0273438,-1.2260742,-1.3662109,-1.4047852,-1.3823242,-1.3818359,-1.4511719,-1.0273438,-1.0273438,-1.0273438,-1.0273438,-1.0371094,-0.8886719,-0.84765625,-0.7133789,-0.55859375,-0.5161133,-0.5161133,-0.5517578,-0.55859375,-0.5629883,-0.5629883,-0.5629883,-0.7089844,-0.7089844,-0.6875,-0.6875,-0.69189453,-0.7207031,-0.7524414,-0.79785156,-0.79785156,-0.84277344,-0.84277344,-0.81884766,-0.6977539,-0.6977539,-0.6748047,-0.6166992,-0.7495117,-0.7495117,-0.7495117,-0.75146484,-0.75146484,-0.7246094,-0.7246094,-0.74316406,-0.71484375,-0.6977539,-0.6879883,-0.69921875,-0.71777344,-0.7265625,-0.75097656,-0.7651367,-0.7651367,-0.7919922,-0.7919922,-0.76708984,-0.76708984,-0.76708984,-0.69628906,-0.69628906,-0.72802734,-0.72802734,-0.69970703,-0.7519531,-0.7519531,-0.7421875,-0.7421875,-0.76904297,-0.76904297,-0.76904297,
triangle,0,4,-0.7890625,-0.7890625,-0.7890625,-0.78466797,-0.78466797,-0.7680664,-0.76171875,-0.7524414,-0.7480469,-0.7480469,-0.75683594,-0.75683594,-0.7519531,-0.76123047,-0.76708984,-0.76708984,-0.76708984,-0.76708984,-0.76708984,-0.7758789,-0.7758789,-0.7758789,-0.76464844,-0.76464844,-0.765625,-0.765625,-0.75927734,-0.75927734,-0.7475586,-0.7558594,-0.75097656,-0.74658203,-0.67285156,-0.67285156,-0.67285156,-0.67285156,-0.81933594,-0.81933594,-0.484375,-0.484375,-0.484375,-0.4296875,-0.39941406,-0.41210938,-0.43798828,-0.45996094,-0.53759766,-0.53759766,-0.5654297,-0.62109375,-0.66015625,-0.67529297,-0.70703125,-0.7495117,-0.7861328,-0.83496094,-0.9121094,-0.9819336,-1.0166016,-1.0195313,-1.2651367,-1.5048828,-1.1708984,-1.2973633,-1.2124023,-1.2094727,-1.15625,-1.0800781,-1.0981445,-0.98828125,-1.1616211,-0.73535156,-1.0585938,-0.57373047,-1.3413086,-1.2973633,-0.88720703,-0.99853516,-0.90527344,-0.8881836,-0.9189453,-0.9121094,-0.86328125,-0.8930664,-0.8930664,-0.7836914,-0.6777344,-0.70214844,-0.7866211,-0.7832031,-0.77197266,-0.77197266,-0.7636719,-0.78515625,-0.67529297,-0.5859375,-0.57373047,-0.52783203,-0.49560547,-0.5517578,-0.73779297,-0.80566406,-1.0874023,-1.0874023,-1.0874023,-1.1137695,-1.1137695,-1.2011719,-1.2749023,-1.2553711,-1.2553711,-1.2250977,-1.1953125,-1.1953125,-1.3554688,-1.3554688,-1.230957,-0.73535156,-0.9238281,-0.8779297,-0.74609375,-0.6118164,-0.6118164,-0.6118164,-0.5522461,-0.4897461,-0.46875,-0.46875,-0.484375,-0.49560547,-0.49365234,-0.5546875,-0.5546875,-0.60839844,-0.60839844,-0.60839844,-0.6845703,-0.6845703,-0.71240234,-0.71240234,-0.77001953,-0.77001953,-0.77001953,-0.80371094,-0.80371094,-0.79833984,-0.8022461,-0.78564453,-0.78564453,-0.78564453,-0.76171875,-0.76171875,-0.7314453,-0.7314453,-0.7373047,-0.7373047,-0.7373047,
circleCw,0,4,-0.78027344,-0.7373047,-0.9223633,-1.0493164,-0.62109375,-0.7709961,-0.7626953,-0.77197266,-0.77197266,-0.7763672,-0.78222656,-0.78125,-0.7788086,-0.7836914,-0.78466797,-0.7763672,-0.77001953,-0.7714844,-0.7714844,-0.7709961,-0.7709961,-0.7709961,-0.7626953,-0.76708984,-0.7578125,-0.7626953,-0.7680664,-0.61376953,-0.6479492,-0.7607422,-0.7714844,-0.7729492,-0.77441406,-0.77246094,-0.7680664,-0.76220703,-0.7480469,-0.7705078,-0.7573242,-0.75,-0.69433594,-0.6401367,-0.6401367,-0.625,-0.6176758,-0.5600586,-0.54589844,-0.5605469,-0.52441406,-0.56347656,-0.54833984,-0.54833984,-0.5546875,-0.53808594,-0.5292969,-0.5209961,-0.5209961,-0.58691406,-0.58691406,-0.7319336,-0.7319336,-0.7319336,-0.9658203,-0.9658203,-0.9951172,-0.9951172,-0.9848633,-0.9633789,-0.9291992,-0.9291992,-0.9291992,-0.7783203,-0.7783203,-0.625,-1.1953125,-1.1953125,-1.1611328,-1.1611328,-1.1162109,-1.1162109,-1.1162109,-1.1308594,-1.1308594,-1.0629883,-1.0629883,-1.0629883,-0.91845703,-0.91845703,-0.9741211,-1.0712891,-0.9838867,-1.0517578,-1.0517578,-1.0649414,-0.98095703,-0.97998047,-1.0268555,-0.9970703,-0.9970703,-0.9916992,-0.9501953,-0.9501953,-0.9482422,-0.97802734,-0.96435547,-0.89160156,-0.89160156,-0.83496094,-0.81152344,-0.9067383,-0.9067383,-0.78564453,-0.56396484,-0.56396484,-0.57421875,-0.5629883,-0.5986328,-0.65527344,-0.6894531,-0.6640625,-0.6640625,-0.7441406,-0.7441406,-0.75146484,-0.6977539,-0.6977539,-0.64160156,-0.64160156,-0.7524414,-0.7524414,-0.59228516,-1.1987305,-1.1987305,-0.84375,-0.84375,-0.8183594,-0.875,-0.875,-0.86376953,-0.86376953,-0.8417969,-0.83154297,-0.83203125,-0.8720703,-0.8598633,-0.8071289,-0.7871094,-0.81152344,-0.8125,-0.7988281,-0.77734375,-0.76904297,-0.78222656,-0.8203125,
circleCcw,0,4,-0.8730469,-0.8730469,-0.8691406,-0.8691406,-0.8691406,-0.8964844,-0.8964844,-0.90625,-0.90625,-0.8730469,-0.8461914,-0.8461914,-0.83691406,-0.8461914,-0.85058594,-0.85839844,-0.85839844,-0.85839844,-0.85546875,-0.75341797,-0.83154297,-1.0625,-1.0625,-0.44726563,-0.7758789,-0.8442383,-0.87158203,-0.87158203,-0.8852539,-0.8852539,-0.8852539,-0.8823242,-0.8808594,-0.890625,-0.890625,-0.93896484,-0.93896484,-0.93896484,-1.0424805,-1.0424805,-1.0380859,-1.0380859,-1.0097656,-1.0097656,-1.0097656,-0.7626953,-0.7626953,-0.8540039,-0.7885742,-0.72216797,-0.6166992,-0.6166992,-0.51708984,-0.51708984,-0.46923828,-0.48095703,-0.48095703,-0.061523438,-0.061523438,-0.140625,-0.140625,-0.140625,-0.24560547,-0.4008789,-0.4008789,-0.5678711,-1.2333984,-0.9116211,-0.9628906,-0.9628906,-0.9628906,-0.5864258,-0.5864258,-1.144043,-1.0517578,-1.0517578,-1.0141602,-1.0141602,-0.9536133,-0.9536133,-0.9536133,-1.0004883,-1.0004883,-1.0952148,-1.0952148,-0.9785156,-1.0463867,-1.043457,-1.043457,-0.91748047,-0.91748047,-0.91748047,-0.91748047,-0.91748047,-1.3393555,-1.3393555,-1.3393555,-1.3393555,-1.3393555,-1.0244141,-0.6948242,-0.49365234,-0.5019531,-0.52685547,-0.49658203,-0.57666016,-0.6489258,-0.6826172,-0.52734375,-0.5419922,-0.54345703,-0.59033203,-0.59033203,-0.7739258,-0.7739258,-0.7739258,-0.7739258,-0.7739258,-0.7548828,-1.1743164,-1.1743164,-1.1743164,-1.1743164,-1.0776367,-1.0776367,-1.0776367,-1.0776367,-1.0776367,-0.76464844,-0.7348633,-0.7348633,-0.78759766,-0.78759766,-0.78759766,-0.78808594,-0.7661133,-0.7661133,-0.7661133,-0.7680664,-0.77197266,-0.77734375,-0.77734375,-0.77734375,-0.7753906,-0.73779297,-0.73779297,-0.6899414,-0.6899414,-0.6899414,
left,0,5,-0.6694336,-0.6694336,-1.2304688,-1.2304688,-1.2304688,-1.1044922,-1.1416016,-1.237793,-0.9477539,-0.7578125,-0.7636719,-0.7583008,-0.7705078,-0.7705078,-0.77197266,-0.77197266,-0.7651367,-0.7680664,-0.7680664,-0.76904297,-0.76904297,-0.76220703,-0.76220703,-0.76220703,-0.76171875,-0.76171875,-0.7651367,-0.76123047,-0.76123047,-0.76123047,-0.79541016,-0.42333984,-0.42333984,-0.6401367,-0.7944336,-0.7944336,-0.81689453,-0.8466797,-0.8989258,-0.97265625,-0.97265625,-0.97265625,-1.0541992,-1.0244141,-1.0244141,-1.0019531,-1.1455078,-1.1455078,-1.2504883,-1.1425781,-1.1425781,-0.76416016,-0.8227539,-0.7392578,-0.66064453,-0.6298828,-0.6298828,-0.64501953,-0.65234375,-0.6425781,-0.6611328,-1.0078125,-1.0078125,-1.1040039,-1.1040039,-0.3828125,-0.3828125,-0.46923828,-0.46923828,-0.37158203,-1.1264648,-1.1264648,-0.71875,-0.71875,-0.71875,-0.7739258,-0.7739258,-0.7470703,-0.7470703,-0.7314453,-0.7416992,-0.7416992,-0.6767578,-0.69970703,-0.69970703,-0.69970703,-0.5859375,-0.5859375,-0.5859375,-0.78466797,-0.78466797,-0.7607422,-0.7607422,-0.7607422,-0.7373047,-0.7373047,
right,0,5,-0.78466797,-0.78466797,-0.78466797,-0.81347656,-0.81347656,-0.68652344,-1.0869141,-0.5776367,-0.7319336,-0.8046875,-0.7939453,-0.7939453,-0.7939453,-0.82470703,-0.82470703,-0.8149414,-0.8334961,-0.86328125,-0.86328125,-0.86328125,-0.79296875,-0.75927734,-0.7709961,-0.8457031,-0.8457031,-0.8457031,-0.8457031,-0.9555664,-0.9555664,-0.82958984,-0.82958984,-0.82958984,-0.8334961,-0.81640625,-0.81640625,-0.81640625,-0.81640625,-0.81640625,-0.81640625,-0.80810547,-0.73535156,-0.73535156,-0.73535156,-0.71777344,-0.69140625,-0.75439453,-0.77490234,-0.7714844,-0.74902344,-0.64208984,-0.64208984,-0.64208984,-0.64208984,-0.64208984,-0.6542969,-0.85546875,-0.85546875,-0.85546875,-0.85546875,-0.80566406,-0.7529297,-0.7529297,-0.7529297,-0.7529297,-0.8457031,-0.9370117,-0.9370117,-0.9370117,-1.0625,-1.0625,-1.0625,-1.0063477,-0.9550781,-1.0195313,-1.137207,-1.137207,-0.98535156,-0.98535156,-0.98535156,-0.98535156,-0.9560547,-0.9560547,-0.9560547,-0.9560547,-0.9560547,-0.92333984,-0.92333984,-0.93408203,-0.93408203,-0.93408203,-0.93408203,-0.93408203,-0.93408203,
up,0,5,-0.8544922,-0.84228516,-0.84228516,-0.8359375,-0.8359375,-0.8310547,-0.8330078,-0.8330078,-0.83154297,-0.83251953,-0.8203125,-0.8203125,-0.8227539,-0.8227539,-0.81884766,-0.81884766,-0.72802734,-0.72802734,-0.72802734,-0.4794922,-0.4794922,-0.484375,-0.484375,-0.484375,-1.2729492,-1.2729492,-0.7036133,-0.7036133,-0.7036133,-0.79785156,-0.79785156,-0.79785156,-0.79785156,-0.90527344,-0.90527344,-0.90527344,-1.2045898,-2.1357422,-2.2138672,-2.2138672,-2.2138672,-2.5957031,-2.5957031,-2.2124023,-1.6787109,-0.9448242,-0.9448242,-0.9448242,-0.68115234,-0.68115234,-0.47607422,-0.30273438,-0.10888672,0.0859375,0.0859375,0.20166016,0.4399414,0.6225586,0.6225586,0.7446289,0.7446289,0.7446289,0.7832031,0.7739258,0.72558594,0.6455078,0.5834961,0.56884766,0.56884766,0.54785156,0.5366211,0.5126953,0.5126953,0.5126953,0.47851563,0.43896484,0.43896484,0.43896484,0.42138672,0.42138672,0.42138672,0.4086914,0.4086914,0.3544922,0.3544922,0.3544922,
down,0,5,-0.8413086,-0.8413086,-0.8276367,-0.8276367,-0.82421875,-0.8120117,-0.8095703,-0.84033203,-0.85791016,-0.89990234,-0.89990234,-0.89990234,-0.8496094,-0.8496094,-1.0043945,-0.40820313,-0.9550781,-0.8520508,-0.8442383,-0.8491211,-0.8491211,-0.8442383,-0.83740234,-0.84228516,-0.8383789,-0.8383789,-0.81591797,-0.81591797,-0.6274414,-0.6274414,-0.6274414,-0.32714844,-0.32714844,-0.22167969,-0.1538086,-0.25634766,-0.25634766,-0.18066406,-0.45410156,-0.37695313,-0.31933594,-0.3154297,-0.35058594,-0.43164063,-0.53515625,-0.6220703,-0.7949219,-0.92529297,-0.92529297,-0.92529297,-0.9667969,-0.9350586,-0.84033203,-0.7397461,-0.6401367,-0.6401367,-0.64941406,-0.6503906,-0.20996094,-0.20996094,-0.20996094,-0.20996094,-0.13671875,-0.037109375,-0.037109375,-0.037109375,-0.037109375,-0.03125,-0.041015625,-0.029296875,-0.022460938,-0.022460938,0.0029296875,0.0029296875,0.0029296875,0.0029296875,-0.015625,-0.015625,
square,0,5,-0.8178711,-0.8178711,-0.8178711,-0.81396484,-0.81396484,-0.8125,-0.8125,-0.8125,-0.8125,-0.80810547,-0.8120117,-0.8120117,-0.8125,-0.8125,-0.8125,-0.8173828,-0.8173828,-0.7939453,-0.7939453,-1.0722656,-1.0722656,-1.0722656,-0.7973633,-0.7973633,-0.82470703,-0.82470703,-0.82470703,-0.8076172,-0.8076172,-0.8178711,-0.8173828,-0.82128906,-0.8203125,-0.8203125,-0.80810547,-0.80810547,-0.80810547,-0.80810547,-0.796875,-0.796875,-0.796875,-0.7705078,-0.66796875,-0.66796875,-0.66796875,-0.5600586,-0.5600586,-0.97753906,-0.97753906,-0.97753906,-0.73876953,-0.73876953,-0.73876953,-0.7915039,-0.7915039,-0.8125,-0.8125,-0.7475586,-0.7475586,-0.7475586,-0.7241211,-0.7241211,-0.7338867,-0.7338867,-0.7338867,-0.7338867,-0.7338867,-0.67529297,-0.67529297,-0.68115234,-0.68115234,-0.65283203,-0.54833984,-0.49023438,-0.5395508,-0.5878906,-0.5878906,-0.5878906,-0.7080078,-0.7080078,-0.92333984,-0.92333984,-0.92333984,-0.92333984,-1.2182617,-1.2182617,-1.2182617,-1.2182617,-1.2182617,-1.2182617,-1.2104492,-1.265625,-1.2587891,-1.206543,-1.0239258,-1.0239258,-1.0239258,-0.9614258,-0.9614258,-0.9614258,-0.8574219,-0.81640625,-0.81640625,-0.81640625,-0.81640625,-0.7939453,-0.6479492,-0.6479492,-0.6479492,-0.6479492,-0.63916016,-0.52978516,-0.52978516,-0.52978516,-0.52978516,-0.5732422,-0.59716797,-0.61328125,-0.61328125,-0.61328125,-0.61328125,-0.8496094,-1.2128906,-1.2128906,-1.2128906,-1.296875,-1.296875,-1.296875,-1.296875,-1.296875,-1.1967773,-1.1967773,-1.0244141,-0.9277344,-1.0185547,-1.0185547,-1.0185547,-1.0185547,-0.73339844,-0.73339844,-0.61083984,-0.61083984,-0.61083984,-0.61083984,-0.61083984,-0.61083984,-0.6850586,-0.6850586,-0.6850586,-0.6850586,-0.6850586,-0.74121094,-0.74121094,-0.74121094,-0.74121094,-0.74121094,-0.74121094,-0.8408203,-0.8408203,-0.8408203,-0.96533203,-0.96533203,-1.1333008,-0.9614258,-0.8383789,-0.8383789,-0.8383789,-0.8383789,-0.81689453,-0.81689453,-0.81689453,-0.81689453,-0.81689453,-0.79785156,-0.79785156,-0.79785156,-0.79785156,-0.79785156,-0.79785156,-0.7944336,-0.78222656,-0.78222656,-0.8017578,-0.7988281,-0.78759766,-0.7558594,-0.8769531,-0.9291992,
triangle,0,5,-0.6660156,-0.6660156,-0.6660156,-1.0009766,-1.0009766,-1.050293,-1.050293,-1.050293,-1.0180664,-1.0180664,-0.8955078,-0.8955078,-0.90185547,-0.9033203,-0.87060547,-0.8256836,-0.8256836,-0.84765625,-0.84765625,-0.84765625,-0.83251953,-0.83251953,-0.8510742,-0.8666992,-0.8676758,-0.8496094,-0.84814453,-0.84814453,-0.84814453,-0.96972656,-0.96972656,-1.0820313,-1.0820313,-1.0820313,-1.081543,-1.081543,-1.2524414,-1.2231445,-1.2231445,-1.3696289,-1.0766602,-1.112793,-1.112793,-0.39208984,-0.39208984,-0.39208984,-1.112793,-1.112793,-0.8540039,-0.85839844,-0.85839844,-0.8564453,-0.8911133,-0.8911133,-0.8911133,-0.8989258,-0.87890625,-0.8803711,-0.87402344,-0.8461914,-0.8857422,-1.1630859,-1.1630859,-0.5307617,-1.0673828,-0.6401367,-0.6401367,-0.86572266,-0.86572266,-0.86572266,-0.8642578,-0.8642578,-0.8774414,-0.8774414,-0.83251953,-0.83251953,-0.83251953,-0.8417969,-0.8417969,-0.84033203,-0.84033203,-0.85498047,-0.85498047,-0.85498047,-0.84228516,-0.84228516,-0.8300781,-0.8496094,-0.8496094,-0.84277344,-0.84277344,-0.83691406,-0.83691406,-0.83691406,-0.83691406,-0.83691406,-0.82128906,-0.82128906,-0.8041992,-0.8041992,-0.78808594,-0.7236328,-0.65527344,-0.5698242,-0.5175781,-0.52197266,-0.52197266,-0.50439453,-0.50439453,-0.4970703,-0.609375,-0.609375,-0.58740234,-0.6850586,-0.6850586,-0.81591797,-0.81591797,-0.85839844,-0.85839844,-1.0546875,-1.0546875,-1.0097656,-0.98876953,-1.0625,-1.0800781,-1.0800781,-1.0068359,-1.0283203,-1.0283203,-1.0283203,-1.0283203,-0.921875,-0.921875,-0.921875,-0.87890625,-0.87890625,-0.85839844,-0.89160156,-0.8364258,-0.8364258,-0.8364258,-0.85839844,-0.85839844,-0.58496094,-0.58496094,-0.52246094,-0.52246094,-0.52246094,-0.69091797,-0.69091797,-0.7871094,-0.6533203,-0.6533203,-0.60009766,-0.57714844,-0.49365234,-0.49365234,-0.4243164,-0.4243164,-0.42333984,-0.4555664,-0.4555664,-0.51123047,-0.46289063,-0.79003906,-0.79003906,-0.79003906,-0.8691406,-0.91503906,-1.0874023,-1.0874023,-1.0874023,-1.1391602,-1.1977539,-1.2851563,-1.2851563,-1.1962891,-1.152832,-1.0893555,-1.0512695,-0.9941406,-0.8964844,-0.8964844,-0.8457031,-0.8457031,-0.25146484,-0.50927734,-0.50927734,-0.45361328,-0.38720703,-0.38720703,-0.3930664,-0.45410156,-0.4741211,-0.67333984,-0.67333984,-0.67333984,-0.67333984,-0.76660156,-0.76660156,-0.7890625,-0.7890625,-0.77197266,-0.77197266,-0.78466797,-0.78808594,-0.7939453,-0.8017578,-0.8017578,-0.7885742,-0.7885742,-0.8051758,-0.85791016,-0.85791016,-0.8491211,-1.065918,-0.8076172,
circleCw,0,5,-0.6191406,-0.6191406,-0.66064453,-0.66064453,-0.6948242,-0.7207031,-0.7207031,-0.69433594,-0.7011719,-0.8354492,-0.8354492,-0.85302734,-0.85302734,-0.85302734,-0.8413086,-0.87939453,-0.94433594,-0.9301758,-0.91796875,-0.92626953,-0.9355469,-0.9243164,-0.91845703,-0.82373047,-0.82373047,-0.82373047,-0.79589844,-0.79589844,-0.76708984,-0.76708984,-0.7705078,-0.7705078,-0.7705078,-0.7475586,-0.7661133,-0.76220703,-0.71728516,-0.7529297,-0.81640625,-0.8178711,-0.8144531,-0.8144531,-0.83935547,-0.79248047,-0.79248047,-0.79248047,-0.79248047,-0.7949219,-0.7949219,-0.8256836,-0.8256836,-0.8256836,-0.8198242,-0.87939453,-0.87939453,-0.8828125,-1.1025391,-1.1025391,-1.1025391,-0.6225586,-0.6225586,-0.7109375,-0.7109375,-0.7109375,-0.6201172,-0.6201172,-0.5942383,-0.5942383,-0.57470703,-0.57470703,-0.57470703,-0.5566406,-0.5576172,-0.5883789,-0.60791016,-0.60791016,-0.6401367,-0.6401367,-0.6894531,-0.6894531,-0.7036133,-0.77490234,-0.7167969,-0.7167969,-0.7167969,-0.86328125,-0.86328125,-0.7475586,-0.7475586,-0.7475586,-0.7919922,-0.7919922,-0.80810547,-0.8105469,-0.8076172,-0.8076172,-0.8076172,-0.79003906,-0.79003906,-0.7680664,-0.7680664,-0.7597656,-0.76416016,-0.76416016,-0.79248047,-0.79248047,-0.8071289,-0.8071289,-0.8071289,-0.8046875,
circleCcw,0,5,-0.8330078,-0.86621094,-0.8510742,-0.8569336,-0.8569336,-0.8774414,-0.8725586,-0.8666992,-0.85595703,-0.8564453,-0.83496094,-0.8227539,-0.8227539,-0.8725586,-0.8725586,-0.75634766,-0.75634766,-0.75634766,-0.8828125,-1.0375977,-1.0224609,-0.84521484,-0.84521484,-0.82177734,-0.7890625,-0.7832031,-0.7763672,-0.7792969,-0.76904297,-0.76904297,-0.77197266,-0.7832031,-0.85546875,-0.85546875,-0.85546875,-0.8701172,-0.91845703,-0.99316406,-0.99316406,-0.9790039,-0.97558594,-0.953125,-0.91748047,-0.9921875,-0.9921875,-1.2138672,-0.95996094,-0.8544922,-0.8544922,-0.8066406,-0.7397461,-0.6743164,-0.5283203,-0.5283203,-0.48486328,-0.4482422,-0.41601563,-0.36279297,-0.19677734,-0.28515625,-0.3935547,-0.44970703,-0.44970703,-0.54589844,-0.54589844,-0.68847656,-0.68847656,-0.71240234,-0.45947266,-0.45947266,-1.0166016,-1.0166016,-0.9980469,-0.89941406,-1.0605469,-1.0605469,-1.0605469,-0.83984375,-0.83984375,-0.83984375,-0.9423828,-0.9423828,-0.8823242,-0.8823242,-0.8823242,-0.82470703,-0.82470703,-0.8486328,-0.8486328,-0.79345703,-0.79345703,-0.82421875,-0.84716797,-0.84765625,-0.9501953,-0.9501953,-0.9560547,-0.9560547,-0.9560547,-0.9814453,-0.9814453,-0.9736328,-0.94091797,-0.87402344,-0.8364258,-0.8564453,-0.87841797,-0.87841797,-0.71777344,-0.71777344,-0.71777344,-0.6591797,-0.6591797,-0.58251953,-0.58251953,-0.5571289,-0.54052734,-0.46679688,-0.47558594,-0.47558594,-0.5053711,-0.54248047,-0.54248047,-0.58740234,-0.58740234,-0.5961914,-0.5961914,-0.6166992,-0.6503906,-0.6503906,-0.7265625,-0.7265625,-0.72802734,-0.7524414,-0.76220703,-0.7026367,-0.7026367,-0.7026367,-0.7026367,-0.7026367,-0.7026367,-0.7519531,-0.7519531,-0.7519531,-0.75927734,-0.75927734,-0.77246094,
left,0,6,-0.8574219,-0.8574219,-0.8574219,-0.84375,-0.84375,-0.83691406,-0.8330078,-0.72802734,-0.8027344,-0.5439453,-0.89941406,-0.92089844,-0.79833984,-0.80078125,-0.80078125,-0.8120117,-0.81689453,-0.83447266,-0.8408203,-0.8408203,-0.87109375,-0.8720703,-0.86035156,-0.86035156,-0.8520508,-0.8520508,-0.8520508,-0.8574219,-0.85839844,-0.8671875,-0.8671875,-0.84375,-0.84375,-0.84375,-1.0053711,-1.0053711,-1.0068359,-1.0068359,-1.0068359,-0.9716797,-0.9716797,-1.0463867,-1.0463867,-1.0996094,-1.0996094,-1.0996094,-0.88134766,-0.88134766,-1.0454102,-1.2978516,-0.74609375,-0.390625,-0.390625,-0.55078125,-0.55078125,-1.0913086,-0.5131836,-0.64941406,-0.44921875,-0.6230469,-1.090332,-1.090332,-0.21044922,-0.21044922,-0.21044922,-0.63720703,-0.69873047,-0.8354492,-0.8354492,-0.9169922,-0.9169922,-0.9169922,-0.74316406,-0.74316406,-0.95996094,-0.95996094,-0.95996094,-1.1298828,-1.1298828,-1.2148438,-1.2148438,-1.1655273,-1.1655273,-1.1655273,-0.90478516,-0.90478516,-0.8847656,-0.8847656,-0.8847656,-0.8847656,-0.44873047,-0.8676758,-0.8676758,-0.36767578,-0.36767578,-0.36767578,-0.38330078,-0.38330078,-0.7348633,-0.7348633,-0.77734375,-0.77734375,-0.6689453,-0.6689453,-0.6689453,-1.1342773,-1.1342773,-1.2661133,-1.2661133,-1.2661133,
right,0,6,-0.796875,-0.796875,-0.79345703,-0.79345703,-0.79345703,-0.79345703,-0.79785156,-0.7890625,-0.79052734,-0.7817383,-0.7763672,-0.7763672,-0.78271484,-0.78271484,-0.78808594,-0.78808594,-0.78808594,-0.7866211,-0.7866211,-0.78759766,-0.78759766,-0.7832031,-0.7832031,-0.7915039,-0.7998047,-0.7998047,-0.7944336,-0.7836914,-0.7915039,-0.77734375,-0.77734375,-0.7832031,-0.7832031,-0.77783203,-0.7451172,-0.7451172,-0.7163086,-0.7163086,-0.75439453,-0.7416992,-0.69433594,-0.6352539,-0.6352539,-0.6635742,-0.65966797,-0.6635742,-0.6645508,-0.7080078,-0.7441406,-0.7441406,-0.7871094,-0.7871094,-0.7861328,-0.7861328,-0.8569336,-0.86572266,-0.86572266,-0.7861328,-0.7861328,-0.8510742,-0.8510742,-0.8510742,-0.9194336,-0.9194336,-0.9458008,-0.93652344,-1.0058594,-1.0058594,-1.0058594,-0.9916992,-0.9916992,-1.0039063,-1.0039063,-0.96875,-0.89697266,-0.89697266,-0.91552734,-0.91552734,-0.9213867,-0.91064453,-0.91064453,-0.88671875,-0.88671875,-0.8745117,-0.89208984,-0.86572266,-0.86572266,-0.86572266,-0.87841797,-0.87841797,-0.87060547,-0.8725586,-0.86621094,-0.86621094,-0.86621094,-0.8647461,-0.8647461,-0.86376953,-0.8647461,-0.8808594,-0.87158203,-0.8618164,
up,0,6,-0.83203125,-0.83203125,-0.83203125,-0.83251953,-0.83251953,-0.8417969,-0.8417969,-0.8417969,-0.8388672,-0.81884766,-0.8208008,-0.8208008,-0.8261719,-0.80908203,-0.80908203,-0.81152344,-0.81152344,-0.8227539,-0.8154297,-0.8173828,-0.81396484,-0.81591797,-0.8095703,-0.81347656,-0.8203125,-0.81347656,-0.8129883,-0.81689453,-0.8071289,-0.8129883,-0.8129883,-0.8105469,-0.81152344,-0.8100586,-0.79833984,-0.79833984,-0.79589844,-0.81640625,-1.0878906,-1.0878906,-1.0878906,-1.4360352,-1.4360352,-1.6630859,-1.6630859,-1.7006836,-1.7006836,-1.7006836,-1.3803711,-1.3803711,-1.0864258,-1.0864258,-0.99902344,-0.7138672,-0.7138672,-0.4580078,-0.4580078,-0.33691406,-0.18310547,0.05517578,0.23388672,0.23388672,0.27441406,0.2919922,0.36572266,0.37304688,0.37304688,0.38378906,0.38378906,0.40625,0.40625,0.3178711,0.3178711,0.3178711,0.2915039,0.27392578,0.16845703,0.16845703,0.16845703,0.13427734,0.12890625,0.080566406,0.080566406,0.09472656,0.064941406,0.053710938,0.034179688,0.046875,0.06298828,0.067871094,0.05859375,0.052246094,0.056152344,0.055664063,0.0703125,0.061035156,0.061035156,0.080078125,
down,0,6,-0.85791016,-0.85791016,-0.8486328,-0.8486328,-0.8486328,-0.8457031,-0.8413086,-0.8305664,-0.8305664,-0.8359375,-0.83935547,-0.83935547,-0.84716797,-0.84716797,-0.86572266,-0.86572266,-0.86572266,-0.85058594,-0.86083984,-0.8701172,-0.8701172,-0.87597656,-0.8618164,-0.8334961,-0.83203125,-0.82470703,-0.8095703,-0.8154297,-0.8154297,-0.7998047,-0.7998047,-0.7734375,-0.7446289,-0.5756836,-0.5756836,-0.5756836,-0.38330078,-0.38330078,-0.33740234,-0.33740234,-0.30419922,-0.30419922,-0.28027344,-0.3779297,-0.3779297,-0.5888672,-0.5888672,-1.1586914,-1.1586914,-1.1586914,-1.1586914,-1.1586914,-1.0742188,-1.0742188,-0.8876953,-0.6333008,-0.6333008,-0.6401367,-0.6401367,-0.7963867,-2.1420898,-2.1420898,-1.1806641,-1.1806641,-0.37646484,-0.7861328,0.028808594,0.028808594,-0.18554688,-0.13769531,-0.13769531,-0.13671875,-0.15771484,-0.15771484,-0.14355469,-0.14355469,-0.12109375,-0.12109375,-0.17089844,-0.17089844,-0.17089844,-0.17285156,-0.17285156,-0.17285156,-0.1772461,-0.1953125,-0.1953125,-0.1953125,-0.21582031,-0.19677734,-0.1875,-0.1875,-0.1875,-0.19580078,-0.21289063,-0.20263672,-0.19970703,-0.19970703,-0.19970703,-0.19970703,
square,0,6,-0.7832031,-0.7832031,-0.7832031,-0.7832031,-0.7949219,-0.79248047,-0.79248047,-0.77441406,-0.76660156,-0.80615234,-0.84277344,-0.84277344,-0.7963867,-0.7963867,-0.7553711,-0.7246094,-0.73291016,-0.7651367,-0.7939453,-0.8051758,-0.80322266,-0.79541016,-0.7783203,-0.7734375,-0.7861328,-0.7919922,-0.79589844,-0.796875,-0.80126953,-0.80126953,-0.80566406,-0.7841797,-0.7841797,-0.7607422,-0.7607422,-0.765625,-0.73876953,-0.74609375,-0.7421875,-0.73876953,-0.73535156,-0.73535156,-0.71728516,-0.71728516,-0.71728516,-0.7314453,-0.6982422,-0.70654297,-0.70654297,-0.72021484,-0.7651367,-0.80810547,-0.79003906,-0.79003906,-0.79785156,-0.76708984,-0.76708984,-0.69628906,-0.69628906,-0.5800781,-0.5800781,-0.5214844,-0.38085938,-0.38085938,-0.37402344,-0.37402344,-0.71484375,-0.71484375,-0.71484375,-0.71484375,-0.7988281,-1.0917969,-1.0917969,-1.1772461,-1.2041016,-1.2651367,-1.3081055,-1.3081055,-1.3081055,-1.3408203,-1.3291016,-1.2802734,-1.2802734,-1.1523438,-1.1523438,-1.1523438,-1.0327148,-1.0327148,-0.8745117,-0.8745117,-0.8354492,-0.8046875,-0.8046875,-0.7861328,-0.7861328,-0.7890625,-0.92822266,-0.92822266,-0.78515625,-0.78515625,-0.7426758,-0.7426758,-0.60839844,-0.60839844,-0.60839844,-0.6503906,-0.6425781,-0.71484375,-0.71484375,-0.7832031,-0.7788086,-0.7788086,-0.89941406,-1.015625,-1.0717773,-1.1352539,-1.4155273,-1.4155273,-1.4155273,-1.3574219,-1.3574219,-1.2875977,-1.1279297,-1.1279297,-0.9897461,-0.9897461,-0.8569336,-0.8569336,-0.75927734,-0.58154297,-0.58154297,-0.58203125,-0.59521484,-0.6123047,-0.5361328,-0.5385742,-0.5385742,-0.5385742,-0.57373047,-0.57373047,-0.7211914,-0.7211914,-0.7211914,-0.7866211,-0.7866211,-0.8256836,-0.8256836,-0.7871094,-0.7871094,-0.7871094,-0.796875,-0.8457031,-0.8144531,-0.8144531,-0.76464844,-0.7495117,-0.7495117,-0.73779297,-0.76123047,-0.8071289,-0.8071289,-0.80371094,-0.7939453,-0.7988281,-0.8120117,-0.78564453,-0.78564453,-0.76464844,-0.78808594,-0.7939453,-0.7939453,-0.8022461,-0.80908203,-0.80322266,-0.7817383,-0.76171875,
triangle,0,6,-0.75097656,-0.75097656,-0.75097656,-0.75927734,-0.75927734,-0.7553711,-0.7529297,-0.7441406,-0.74365234,-0.74365234,-0.74072266,-0.7416992,-0.7553711,-0.7553711,-0.7553711,-0.7631836,-0.7631836,-0.7626953,-0.7685547,-0.7597656,-0.76171875,-0.76171875,-0.7602539,-0.7602539,-0.7709961,-0.7675781,-0.77001953,-0.7631836,-0.7631836,-0.7548828,-0.75878906,-0.75927734,-0.7441406,-0.7441406,-0.7426758,-0.75390625,-0.7426758,-0.7426758,-0.625,-0.625,-0.625,-0.5390625,-0.5390625,-0.4169922,-0.4169922,-0.4165039,-0.4165039,-0.4165039,-0.4453125,-0.47265625,-0.5126953,-0.55859375,-0.63623047,-0.63623047,-0.65625,-0.7270508,-0.7270508,-0.89208984,-0.89208984,-0.89208984,-0.9091797,-0.9423828,-1.0004883,-1.1010742,-1.1279297,-1.1279297,-1.1625977,-1.1811523,-1.1811523,-1.1123047,-1.1123047,-1.1035156,-1.1323242,-1.0581055,-0.9370117,-0.9370117,-0.85595703,-0.85595703,-0.7910156,-0.74121094,-0.74121094,-0.7661133,-0.7661133,-0.8618164,-0.8618164,-0.8618164,-0.8613281,-0.8613281,-0.8154297,-0.72509766,-0.72509766,-0.72509766,-0.72509766,-0.5908203,-0.44628906,-0.44628906,-0.44628906,-0.49658203,-0.5786133,-0.5786133,-0.5986328,-0.6279297,-0.8125,-0.8510742,-0.8510742,-1.0209961,-1.0209961,-1.0600586,-1.2587891,-1.3208008,-1.3208008,-1.3012695,-1.2290039,-0.9892578,-0.9458008,-0.9458008,-0.9458008,-0.9458008,-0.8828125,-0.7832031,-0.69921875,-0.6274414,-0.4736328,-0.43017578,-0.43017578,-0.43017578,-0.4506836,-0.49072266,-0.5263672,-0.5996094,-0.62890625,-0.6713867,-0.74902344,-0.74902344,-0.74902344,-0.74902344,-0.74902344,-0.7714844,-0.7714844,-0.7714844,-0.7714844,-0.7714844,-0.7680664,-0.77783203,-0.7871094,-0.7783203,-0.7578125,-0.7558594,-0.7558594,
circleCw,0,6,-0.8071289,-0.8071289,-0.7739258,-0.7739258,-0.7739258,-0.7631836,-0.7631836,-0.7441406,-0.7441406,-0.77978516,-0.77978516,-0.77978516,-0.7807617,-0.7836914,-0.79248047,-0.7841797,-0.7763672,-0.7763672,-0.7763672,-0.7763672,-0.7763672,-0.7709961,-0.7788086,-0.78271484,-0.81396484,-0.7998047,-0.7895508,-0.8125,-0.8027344,-0.82373047,-0.82373047,-0.82373047,-0.81103516,-0.7910156,-0.7910156,-0.7919922,-0.78759766,-0.70996094,-0.70996094,-0.70996094,-0.6171875,-0.6171875,-0.6640625,-0.6640625,-0.64990234,-0.6582031,-0.67626953,-0.5966797,-0.5966797,-0.5966797,-0.5913086,-0.5913086,-0.63671875,-0.63671875,-0.63134766,-0.63134766,-0.63134766,-0.62890625,-0.62890625,-0.67578125,-0.7680664,-0.96533203,-0.96533203,-0.96533203,-1.1591797,-1.0644531,-1.0317383,-1.0317383,-1.0317383,-0.9272461,-0.93603516,-0.97314453,-0.97314453,-0.9145508,-0.9145508,-0.9145508,-0.9213867,-0.96777344,-0.95751953,-0.93408203,-0.9707031,-0.9707031,-0.9707031,-0.91308594,-0.91308594,-0.84375,-0.84375,-0.7993164,-0.7993164,-0.7993164,-0.78271484,-0.78271484,-0.8051758,-0.8051758,-0.8432617,-0.78222656,-0.78222656,-0.96484375,-0.96484375,-0.84814453,-0.90283203,-0.90283203,-0.92529297,-0.92529297,-0.90234375,-1.0068359,-0.94384766,-0.94384766,-0.94384766,-0.96191406,-0.96728516,-0.8364258,-0.8364258,-0.8364258,-0.8022461,-0.8022461,-0.7871094,-0.7475586,-0.7211914,-0.7211914,-0.65966797,-0.6176758,-0.6064453,-0.6044922,-0.60498047,-0.65722656,-0.65722656,-0.65722656,-0.65722656,-0.65722656,-0.7026367,-0.7026367,-0.6958008,-0.69091797,-0.69091797,-0.7817383,-0.7817383,-0.81103516,-0.81103516,-0.81103516,-0.7871094,-0.7871094,-0.8769531,-0.8769531,-0.8774414,-0.8774414,-0.8964844,-0.9160156,-0.9160156,-0.86816406,-0.86816406,-0.82128906,-0.82128906,-0.8144531,-0.84716797,-0.8310547,-0.85253906,-0.85253906,-0.84472656,-0.80126953,-0.80126953,-0.79833984,-0.7919922,
circleCcw,0,6,-0.8569336,-0.8569336,-0.8334961,-0.8334961,-0.84765625,-0.84765625,-0.84765625,-0.8461914,-0.8461914,-0.84228516,-0.83203125,-0.82421875,-0.82421875,-0.82421875,-0.83251953,-0.81689453,-0.8198242,-0.8198242,-0.82470703,-0.828125,-0.828125,-0.83496094,-0.8359375,-0.84375,-0.83447266,-0.83447266,-0.83691406,-0.8417969,-0.84375,-0.8383789,-0.83984375,-0.8745117,-0.8745117,-0.88720703,-0.92626953,-1.0712891,-1.0712891,-1.0864258,-1.0029297,-1.0029297,-0.9506836,-0.9506836,-0.9111328,-0.90185547,-0.90185547,-0.8730469,-0.8730469,-0.72216797,-0.72216797,-0.61865234,-0.61865234,-0.61865234,-0.54296875,-0.54296875,-0.52978516,-0.52978516,-0.53222656,-0.53222656,-0.53222656,-0.5361328,-0.5761719,-0.52001953,-0.52001953,-0.52001953,-0.546875,-0.546875,-0.5864258,-0.5864258,-0.84033203,-0.84033203,-0.84033203,-0.87841797,-0.9892578,-0.9892578,-0.9892578,-0.9824219,-0.9824219,-0.9526367,-0.9277344,-0.9277344,-1.0727539,-1.112793,-1.0117188,-0.95410156,-0.95410156,-0.9121094,-0.83496094,-0.78222656,-0.98535156,-0.98535156,-1.0185547,-1.0087891,-1.0087891,-1.0087891,-0.9975586,-0.9975586,-0.9975586,-0.9707031,-0.9707031,-0.93310547,-0.92578125,-0.9135742,-0.9135742,-0.9135742,-0.8520508,-0.8520508,-0.87890625,-0.87890625,-0.8408203,-0.78271484,-0.7397461,-0.6953125,-0.6953125,-0.6425781,-0.5966797,-0.5966797,-0.60595703,-0.60595703,-0.57714844,-0.57714844,-0.5541992,-0.60498047,-0.60498047,-0.60498047,-0.60498047,-0.63378906,-0.7182617,-0.7182617,-0.7182617,-0.7182617,-0.7446289,-0.81396484,-0.81396484,-0.85498047,-0.8598633,-0.7885742,-0.78808594,-0.78808594,-0.78808594,-0.7788086,-0.79833984,-0.7871094,-0.8125,-0.78515625,-0.78515625,-0.78515625,
left,0,7,-0.7817383,-0.7817383,-0.8120117,-0.8120117,-0.8232422,-0.8232422,-0.81591797,-0.8173828,-0.8144531,-0.8017578,-0.8017578,-0.8051758,-0.80859375,-0.80126953,-0.7944336,-0.7944336,-0.7866211,-0.7866211,-0.7841797,-0.7832031,-0.7832031,-0.78222656,-0.7841797,-0.78808594,-0.78515625,-0.7944336,-0.7939453,-0.7939453,-0.8144531,-0.8144531,-0.80322266,-0.7949219,-0.7949219,-0.7944336,-0.7944336,-0.8046875,-0.8105469,-0.8354492,-0.8359375,-0.85009766,-0.84765625,-0.86328125,-0.89404297,-0.89404297,-0.89404297,-0.9501953,-0.9501953,-1.0083008,-1.0083008,-1.0288086,-1.0605469,-1.0605469,-1.1083984,-1.0581055,-1.0458984,-1.0,-0.89208984,-0.89208984,-0.89208984,-0.84277344,-0.81103516,-0.6816406,-0.6816406,-0.6816406,-0.6645508,-0.6298828,-0.6142578,-0.6142578,-0.68066406,-0.68066406,-0.68066406,-0.72509766,-0.72509766,-0.76123047,-0.76123047,-0.84033203,-0.84033203,-0.84033203,-0.7475586,-0.7475586,-0.7475586,-0.7475586,-0.7475586,-0.82373047,-0.82373047,-0.77734375,-0.75,-0.8071289,-0.8071289,-0.8071289,-0.82177734,-0.77783203,-0.7758789,-0.80371094,
right,0,7,-0.7963867,-0.7963867,-0.7988281,-0.7988281,-0.7988281,-0.79589844,-0.79589844,-0.79052734,-0.7910156,-0.78271484,-0.77001953,-0.7661133,-0.7529297,-0.7529297,-0.74560547,-0.77490234,-0.77490234,-0.7832031,-0.7871094,-0.7919922,-0.79541016,-0.7866211,-0.7866211,-0.78564453,-0.78466797,-0.78466797,-0.77783203,-0.77783203,-0.7631836,-0.76171875,-0.76171875,-0.7548828,-0.7597656,-0.7631836,-0.7631836,-0.75146484,-0.75146484,-0.75146484,-0.765625,-0.765625,-0.71777344,-0.71777344,-0.6738281,-0.6738281,-0.6738281,-0.73876953,-0.73876953,-0.76416016,-0.76416016,-0.76416016,-0.74365234,-0.74365234,-0.7573242,-0.7763672,-0.82958984,-0.82958984,-0.87890625,-0.93115234,-0.8540039,-0.7861328,-0.80371094,-0.9243164,-0.9243164,-0.9243164,-0.99902344,-0.99902344,-0.9321289,-0.9321289,-0.9321289,-0.92529297,-0.92529297,-0.9038086,-0.9038086,-0.9321289,-0.9321289,-0.88134766,-0.88134766,-0.88134766,-0.8618164,-0.89501953,-0.9326172,-1.0126953,-1.0126953,-1.0390625,-1.0834961,-0.90625,-0.90625,-0.90625,-0.89404297,-0.89404297,-0.90283203,-0.9301758,-0.9301758,-0.9399414,-0.9316406,-0.8852539,-0.8852539,-0.8852539,-0.88183594,-0.88183594,-0.8745117,-0.86572266,
up,0,7,-0.8300781,-0.8300781,-0.8300781,-0.8286133,-0.8286133,-0.84033203,-0.84033203,-0.8432617,-0.8383789,-0.8383789,-0.83691406,-0.83691406,-0.8364258,-0.8364258,-0.8364258,-0.82714844,-0.828125,-0.83691406,-0.83691406,-0.8413086,-0.84765625,-0.84765625,-0.82470703,-0.82470703,-0.81933594,-0.8256836,-0.83447266,-0.8276367,-0.8413086,-0.8413086,-0.8413086,-1.0561523,-1.0561523,-1.2875977,-1.3037109,-1.3271484,-1.4394531,-1.4394531,-1.5683594,-1.5683594,-1.5683594,-1.3950195,-1.3950195,-1.1298828,-1.1298828,-0.89160156,-0.89160156,-0.8125,-0.55908203,-0.55908203,-0.30029297,-0.30029297,0.18945313,0.18945313,0.18945313,0.24951172,0.2734375,0.41015625,0.35009766,0.39697266,0.4375,0.41601563,0.375,0.38183594,0.37548828,0.37548828,0.33740234,0.3100586,0.3100586,0.34716797,0.37695313,0.3071289,0.3071289,0.30517578,0.33642578,0.33642578,0.2548828,0.2548828,0.2548828,0.21972656,0.21972656,0.16503906,0.16503906,0.15820313,0.15820313,0.15820313,0.15234375,0.14453125,
down,0,7,-0.82958984,-0.82958984,-0.8310547,-0.8310547,-0.8222656,-0.8222656,-0.8222656,-0.8203125,-0.8203125,-0.81103516,-0.78515625,-0.7636719,-0.61865234,-0.61865234,-0.37548828,-0.37548828,-0.30126953,-0.30126953,-0.31298828,-0.31298828,-0.31298828,-0.3642578,-0.3642578,-0.43701172,-0.5083008,-0.578125,-0.6533203,-0.7294922,-0.82910156,-0.8857422,-0.9243164,-0.91015625,-0.91015625,-0.51953125,-0.51953125,-0.4296875,-0.62597656,-0.9189453,-0.9189453,-0.9189453,-0.75390625,-0.75390625,-0.6845703,-0.5620117,-0.48388672,-0.43701172,-0.40039063,-0.37402344,-0.29492188,-0.24511719,-0.21191406,-0.16894531,-0.08496094,-0.08496094,-0.08154297,-0.08251953,-0.07861328,-0.10253906,-0.10253906,-0.123535156,-0.13964844,-0.1381836,-0.1381836,-0.1381836,-0.14355469,-0.1586914,-0.18798828,-0.18798828,-0.18408203,-0.1977539,-0.1977539,-0.20019531,-0.20019531,-0.20214844,-0.19628906,-0.20703125,-0.21191406,-0.21972656,-0.21728516,-0.21728516,-0.19677734,-0.19677734,-0.20898438,-0.19921875,-0.19921875,
square,0,7,-0.7597656,-0.7597656,-0.7597656,-0.7597656,-0.7734375,-0.7734375,-0.7607422,-0.7607422,-0.7607422,-0.7602539,-0.7602539,-0.7753906,-0.7753906,-0.7729492,-0.76464844,-0.76464844,-0.7631836,-0.7631836,-0.75390625,-0.74072266,-0.7480469,-0.7446289,-0.7495117,-0.7709961,-0.7709961,-0.77001953,-0.77001953,-0.77001953,-0.79052734,-0.79052734,-0.7866211,-0.7841797,-0.7792969,-0.78759766,-0.78808594,-0.77490234,-0.7729492,-0.7675781,-0.75634766,-0.7416992,-0.7001953,-0.7001953,-0.59033203,-0.59033203,-0.5859375,-0.6435547,-0.6435547,-0.7348633,-0.7348633,-0.7788086,-0.7788086,-0.7192383,-0.7192383,-0.7192383,-0.765625,-0.765625,-0.72802734,-0.72802734,-0.78222656,-0.78222656,-0.78222656,-0.7636719,-0.7636719,-0.7080078,-0.7080078,-0.6616211,-0.5390625,-0.5390625,-0.4560547,-0.4560547,-0.4033203,-0.4033203,-0.49365234,-0.5463867,-0.5463867,-0.62109375,-0.75390625,-0.98291016,-0.98291016,-1.1611328,-1.2045898,-1.2045898,-1.1889648,-1.3476563,-1.3476563,-1.2592773,-1.2592773,-1.2670898,-1.2670898,-1.1645508,-1.0317383,-1.0317383,-0.9638672,-0.9638672,-0.96240234,-0.9477539,-0.9160156,-0.9091797,-0.9091797,-0.9091797,-0.91503906,-0.9082031,-0.9082031,-0.6191406,-0.6191406,-0.6191406,-0.6430664,-0.70166016,-0.7636719,-0.7636719,-0.7636719,-0.76171875,-0.7026367,-0.72021484,-0.72021484,-0.7368164,-0.86572266,-0.86572266,-0.93066406,-0.93066406,-1.0551758,-1.109375,-1.2617188,-1.2626953,-1.2626953,-1.2714844,-1.2714844,-1.2026367,-1.1411133,-0.96533203,-0.96533203,-0.96533203,-0.8027344,-0.8027344,-0.69873047,-0.63720703,-0.63720703,-0.625,-0.62597656,-0.6464844,-0.6464844,-0.6875,-0.6665039,-0.6665039,-0.65771484,-0.6567383,-0.6425781,-0.62402344,-0.6977539,-0.6977539,-0.6977539,-0.6977539,-0.6977539,-0.74658203,-0.74658203,-0.7763672,-0.82373047,-0.82373047,-0.85009766,-0.85009766,-0.78515625,-0.78515625,-0.78515625,-0.8183594,-0.8183594,-0.8071289,-0.8364258,-0.8364258,-0.85253906,-0.85253906,-0.85546875,-0.8466797,-0.8466797,-0.8310547,-0.8310547,-0.81103516,-0.81103516,-0.81103516,-0.82373047,-0.82373047,-0.79541016,-0.79541016,-0.796875,-0.796875,-0.8027344,-0.7993164,-0.7993164,-0.7866211,-0.7866211,-0.7578125,-0.7578125,-0.7578125,-0.74560547,-0.74560547,-0.7729492,-0.7729492,-0.7729492,
triangle,0,7,-0.7753906,-0.7753906,-0.7729492,-0.7729492,-0.7729492,-0.77001953,-0.77001953,-0.7807617,-0.7807617,-0.7753906,-0.765625,-0.76416016,-0.76708984,-0.76708984,-0.77246094,-0.77441406,-0.7685547,-0.7753906,-0.77246094,-0.7661133,-0.7661133,-0.7651367,-0.7651367,-0.78125,-0.7680664,-0.76123047,-0.75634766,-0.7602539,-0.7602539,-0.7602539,-0.7602539,-0.73095703,-0.72021484,-0.6640625,-0.6640625,-0.60498047,-0.546875,-0.49658203,-0.47851563,-0.45117188,-0.42578125,-0.42578125,-0.5161133,-0.59375,-0.6220703,-0.7290039,-0.7290039,-0.7446289,-0.7446289,-0.8100586,-0.8100586,-0.8100586,-0.80029297,-0.8022461,-0.94384766,-0.94384766,-0.94384766,-1.0019531,-1.0019531,-1.0620117,-1.0908203,-1.0800781,-1.0722656,-1.0722656,-1.0053711,-1.0053711,-0.97021484,-0.97021484,-0.96191406,-0.96191406,-0.96191406,-0.91796875,-0.91796875,-0.8803711,-0.8803711,-0.87646484,-0.85546875,-0.85546875,-0.8022461,-0.8022461,-0.765625,-0.7890625,-0.7890625,-0.7675781,-0.7910156,-0.8198242,-0.8198242,-0.7519531,-0.7519531,-0.6948242,-0.6459961,-0.6459961,-0.5517578,-0.5517578,-0.5786133,-0.5786133,-0.5786133,-0.6010742,-0.64208984,-0.8833008,-0.9116211,-0.9116211,-0.9301758,-0.9301758,-1.0102539,-1.0102539,-1.0249023,-1.0834961,-1.1196289,-1.1669922,-1.1669922,-1.168457,-1.1518555,-1.1357422,-1.1357422,-1.1191406,-0.9692383,-0.9692383,-0.91503906,-0.7939453,-0.7939453,-0.65185547,-0.65185547,-0.5678711,-0.5678711,-0.50097656,-0.45898438,-0.45898438,-0.49658203,-0.49658203,-0.60595703,-0.60595703,-0.6591797,-0.6591797,-0.6826172,-0.7285156,-0.7285156,-0.75,-0.80371094,-0.8066406,-0.83447266,-0.83447266,-0.8178711,-0.8178711,-0.8256836,-0.8129883,-0.77197266,-0.77197266,-0.77197266,-0.7583008,-0.7583008,-0.7866211,-0.7866211,-0.7866211,-0.7993164,-0.7993164,
circleCw,0,7,-0.72314453,-0.72314453,-0.72314453,-0.72314453,-0.72314453,-0.73046875,-0.73046875,-0.7446289,-0.7446289,-0.74121094,-0.7475586,-0.7475586,-0.7495117,-0.7495117,-0.7416992,-0.73779297,-0.75,-0.75,-0.75,-0.7392578,-0.7392578,-0.7392578,-0.7392578,-0.7504883,-0.74121094,-0.74121094,-0.7426758,-0.7470703,-0.7397461,-0.73828125,-0.72558594,-0.69140625,-0.69140625,-0.6557617,-0.6557617,-0.6738281,-0.7441406,-0.7441406,-0.75097656,-0.75097656,-0.7714844,-0.73779297,-0.6245117,-0.6245117,-0.6245117,-0.5390625,-0.5390625,-0.515625,-0.49414063,-0.5107422,-0.515625,-0.515625,-0.57470703,-0.57470703,-0.6635742,-0.6635742,-0.6635742,-0.6381836,-0.6381836,-0.640625,-0.640625,-0.6386719,-0.6904297,-0.6904297,-0.7319336,-0.7319336,-0.875,-0.875,-0.875,-0.8984375,-0.8984375,-0.8911133,-0.8911133,-0.96191406,-0.96191406,-0.96191406,-0.98291016,-0.98291016,-1.0209961,-1.0209961,-0.97216797,-0.97216797,-0.97216797,-0.93652344,-1.0,-1.0112305,-1.0112305,-0.94677734,-0.94677734,-0.94677734,-0.9970703,-0.9970703,-0.92089844,-0.9584961,-0.9584961,-1.1069336,-1.1069336,-0.9824219,-0.9824219,-0.77001953,-0.77001953,-0.77001953,-0.8515625,-0.95947266,-1.0263672,-0.93896484,-0.8779297,-0.8779297,-0.8779297,-0.7607422,-0.7607422,-0.7470703,-0.72021484,-0.72021484,-0.7602539,-0.7602539,-0.7158203,-0.7158203,-0.5175781,-0.5175781,-0.5175781,-0.5864258,-0.5864258,-0.59375,-0.6513672,-0.7602539,-0.7602539,-0.7602539,-0.8095703,-0.8095703,-0.94384766,-0.94384766,-0.94384766,-0.9091797,-0.8129883,-0.72216797,-0.66552734,-0.70166016,-0.70166016,-0.7158203,-0.86376953,-0.86376953,-0.8569336,-0.8569336,-0.8754883,-0.8754883,-0.8754883,-0.8432617,-0.8432617,-0.8095703,-0.8095703,-0.8095703,-0.8330078,-0.8330078,-0.8745117,-0.8745117,-0.8828125,-0.8828125,-0.88427734,-0.89746094,-0.8911133,-0.87939453,-0.87939453,-0.8754883,-0.8754883,-0.8779297,
circleCcw,0,7,-0.8125,-0.8125,-0.8125,-0.8173828,-0.8173828,-0.8173828,-0.8173828,-0.8066406,-0.8046875,-0.8046875,-0.8046875,-0.8046875,-0.78564453,-0.79833984,-0.79833984,-0.8095703,-0.8095703,-0.7895508,-0.7919922,-0.7988281,-0.79785156,-0.80615234,-0.8022461,-0.80322266,-0.8183594,-0.8149414,-0.79345703,-0.79345703,-0.8203125,-0.8144531,-0.78564453,-0.7871094,-0.7832031,-0.78222656,-0.7763672,-0.78564453,-0.7866211,-0.79296875,-0.7998047,-0.80810547,-0.81640625,-0.83154297,-0.8574219,-0.8876953,-0.9038086,-1.0322266,-1.0322266,-1.0322266,-1.050293,-0.98095703,-0.8413086,-0.8413086,-0.8413086,-0.8413086,-0.8413086,-0.82421875,-0.80029297,-0.72314453,-0.72314453,-0.6401367,-0.546875,-0.546875,-0.5029297,-0.5029297,-0.4165039,-0.4165039,-0.4165039,-0.47216797,-0.47216797,-0.48828125,-0.4633789,-0.5078125,-0.5078125,-0.57177734,-0.66259766,-0.6953125,-0.7597656,-0.86035156,-0.86035156,-0.81591797,-0.81591797,-0.79296875,-0.79296875,-0.8676758,-0.8984375,-0.8984375,-0.90478516,-0.9707031,-0.97021484,-0.97021484,-0.9350586,-0.9350586,-0.9350586,-0.93408203,-0.93408203,-0.82470703,-0.82470703,-0.69091797,-0.69091797,-0.69091797,-0.8598633,-0.8598633,-0.86376953,-0.91064453,-0.91064453,-0.8852539,-0.8984375,-0.9995117,-0.9995117,-0.9995117,-0.9707031,-0.9707031,-0.84521484,-0.84521484,-0.84521484,-0.9091797,-0.9091797,-0.9008789,-0.8720703,-0.87060547,-0.8286133,-0.74365234,-0.65283203,-0.65283203,-0.5913086,-0.5913086,-0.5913086,-0.4975586,-0.4975586,-0.48095703,-0.53564453,-0.5756836,-0.57958984,-0.5805664,-0.6044922,-0.6044922,-0.57373047,-0.5917969,-0.6513672,-0.6513672,-0.6513672,-0.69873047,-0.68896484,-0.71240234,-0.7216797,-0.7216797,-0.7246094,-0.7246094,-0.7036133,-0.7036133,-0.6958008,-0.6958008,-0.70947266,-0.6894531,-0.6894531,-0.70458984,-0.70996094,-0.6850586,-0.6850586,-0.6977539,-0.70410156,-0.70410156,-0.70751953,-0.7241211,-0.7915039,-1.0083008,-1.0083008,-0.73779297,-0.73779297,-0.6381836,-0.6845703,-0.6845703,
left,0,8,-0.7734375,-0.7734375,-0.7734375,-0.7734375,-0.7734375,-0.7763672,-0.78564453,-0.78564453,-0.7631836,-0.7631836,-0.7651367,-0.7607422,-0.77197266,-0.77197266,-0.77197266,-0.7680664,-0.7709961,-0.78271484,-0.78271484,-0.7709961,-0.7783203,-0.7783203,-0.7763672,-0.7763672,-0.7817383,-0.7817383,-0.7817383,-0.78808594,-0.77246094,-0.76708984,-0.76708984,-0.7714844,-0.7885742,-0.7885742,-0.8251953,-0.8251953,-0.88720703,-0.88720703,-0.87060547,-0.87060547,-0.87060547,-0.8256836,-0.8256836,-0.9560547,-0.9560547,-1.0483398,-1.0483398,-1.0483398,-1.0092773,-0.96777344,-0.9995117,-0.9848633,-0.9848633,-0.89746094,-0.7338867,-0.7338867,-0.7338867,-0.73828125,-0.67041016,-0.56933594,-0.51904297,-0.51904297,-0.6166992,-0.6166992,-0.6635742,-0.6635742,-0.6635742,-0.7807617,-0.7807617,-0.81933594,-0.81933594,-0.8198242,-0.74560547,-0.74560547,-0.765625,-0.765625,-0.75390625,-0.76464844,-0.76464844,-0.7504883,-0.7504883,-0.7753906,-0.7753906,-0.7866211,-0.7866211,-0.7866211,-0.78466797,-0.78466797,-0.8383789,-0.8383789,-0.8027344,-0.8027344,-0.8027344,-0.7705078,-0.7504883,
right,0,8,-0.80615234,-0.80615234,-0.79296875,-0.79296875,-0.79296875,-0.80371094,-0.80371094,-0.8041992,-0.7973633,-0.7973633,-0.80566406,-0.81152344,-0.81347656,-0.81347656,-0.81103516,-0.81103516,-0.81103516,-0.8149414,-0.8183594,-0.80859375,-0.80859375,-0.8100586,-0.79541016,-0.79589844,-0.7998047,-0.7998047,-0.7973633,-0.7973633,-0.80810547,-0.7885742,-0.7885742,-0.7548828,-0.7548828,-0.68115234,-0.68115234,-0.68115234,-0.72314453,-0.72998047,-0.6972656,-0.6972656,-0.6669922,-0.66503906,-0.6743164,-0.6699219,-0.7319336,-0.7519531,-0.71728516,-0.58496094,-0.58496094,-0.6796875,-1.0400391,-1.1953125,-1.1953125,-1.2250977,-1.2192383,-1.0556641,-0.90478516,-0.80810547,-0.7626953,-0.84765625,-1.0283203,-1.0283203,-1.0708008,-1.0522461,-0.93408203,-0.93408203,-0.9482422,-0.9482422,-0.9482422,-0.8989258,-0.8989258,-0.88623047,-0.88623047,-0.88623047,-0.87597656,-0.87597656,-0.8564453,-0.8564453,-0.83154297,-0.83154297,-0.83154297,-0.8232422,-0.8232422,-0.86328125,-0.86328125,-0.859375,-0.859375,-0.859375,-0.86328125,-0.86328125,-0.9169922,-0.9169922,-0.9267578,-0.9267578,-0.9267578,
up,0,8,-0.83984375,-0.83984375,-0.83984375,-0.83984375,-0.83984375,-0.8276367,-0.8276367,-0.8276367,-0.8354492,-0.8208008,-0.8251953,-0.8251953,-0.8359375,-0.8359375,-0.8432617,-0.85009766,-0.8510742,-0.8408203,-0.8408203,-0.8339844,-0.8339844,-0.81347656,-0.828125,-0.828125,-0.8251953,-0.8383789,-0.82958984,-0.82958984,-0.8286133,-0.8286133,-0.8286133,-0.87060547,-0.87060547,-0.9238281,-1.0947266,-1.0947266,-1.2460938,-1.2460938,-1.3901367,-1.3901367,-1.5722656,-1.5722656,-1.5722656,-1.5634766,-1.5634766,-1.324707,-1.324707,-1.1987305,-1.1987305,-1.0786133,-0.95703125,-0.8598633,-0.7338867,-0.47216797,-0.47216797,-0.32958984,-0.23925781,-0.115722656,-0.022460938,0.37109375,0.37109375,0.37109375,0.4633789,0.4633789,0.47509766,0.47509766,0.4555664,0.41748047,0.35791016,0.37548828,0.36865234,0.36376953,0.3491211,0.26464844,0.26464844,0.26464844,0.24560547,0.24023438,0.21435547,0.21435547,0.21435547,0.2006836,0.2006836,0.1484375,0.1484375,0.12060547,0.12060547,0.13769531,0.123535156,0.123535156,0.10498047,0.083984375,
down,0,8,-0.82421875,-0.82421875,-0.83935547,-0.83935547,-0.83935547,-0.8413086,-0.8413086,-0.85302734,-0.85302734,-0.87841797,-0.87841797,-0.8588867,-0.85302734,-0.8466797,-0.85595703,-0.85595703,-0.84277344,-0.8457031,-0.85058594,-0.85253906,-0.85058594,-0.8496094,-0.86621094,-0.8745117,-0.87060547,-0.8598633,-0.8574219,-0.8574219,-0.8569336,-0.8354492,-0.8354492,-0.82666016,-0.7988281,-0.7988281,-0.78222656,-0.7553711,-0.6010742,-0.6010742,-0.6010742,-0.47314453,-0.47314453,-0.42138672,-0.37304688,-0.33447266,-0.3359375,-0.3334961,-0.39160156,-0.39160156,-0.48095703,-0.48095703,-0.52685547,-0.60546875,-0.6411133,-0.7026367,-0.7026367,-0.65722656,-0.65722656,-0.6298828,-0.6582031,-0.6582031,-0.67529297,-0.67529297,-0.6347656,-0.6347656,-0.6347656,-0.51708984,-0.4169922,-0.37451172,-0.37451172,-0.36914063,-0.30517578,-0.23486328,-0.12402344,-0.12402344,-0.01953125,-0.01953125,0.057128906,0.057128906,0.115722656,0.09765625,0.09765625,0.067871094,0.07373047,0.07373047,0.099609375,0.07470703,0.072753906,0.072753906,0.049316406,0.049316406,0.025878906,-0.0024414063,-0.0024414063,-0.026367188,-0.026367188,
square,0,8,-0.7675781,-0.7675781,-0.75390625,-0.75390625,-0.75390625,-0.75439453,-0.75439453,-0.7685547,-0.7685547,-0.7729492,-0.7763672,-0.7763672,-0.78222656,-0.7758789,-0.76904297,-0.7626953,-0.7626953,-0.7636719,-0.7480469,-0.7573242,-0.7573242,-0.76660156,-0.76660156,-0.76660156,-0.7866211,-0.79296875,-0.8120117,-0.82373047,-0.84033203,-0.83935547,-0.83203125,-0.7783203,-0.7783203,-0.7626953,-0.7495117,-0.75390625,-0.7817383,-0.7817383,-0.71484375,-0.71484375,-0.6538086,-0.6538086,-0.6538086,-0.70703125,-0.70703125,-0.6879883,-0.67041016,-0.58740234,-0.58740234,-0.58740234,-0.57666016,-0.5800781,-0.5986328,-0.5986328,-0.5957031,-0.64160156,-0.64160156,-0.63720703,-0.51416016,-0.51416016,-0.51416016,-0.51416016,-0.5600586,-0.5600586,-0.5078125,-0.5078125,-0.61621094,-0.61621094,-0.7036133,-0.8618164,-0.8618164,-1.0483398,-1.3271484,-1.3271484,-1.3271484,-1.3271484,-1.3139648,-1.3139648,-1.237793,-1.237793,-1.2998047,-1.2998047,-1.2998047,-1.1459961,-1.1459961,-1.0712891,-1.0712891,-1.0712891,-0.8769531,-0.8769531,-0.89941406,-0.89941406,-0.88134766,-0.7998047,-0.7446289,-0.77197266,-0.77197266,-0.7050781,-0.7050781,-0.74560547,-0.7416992,-0.7416992,-0.7910156,-0.7910156,-0.90625,-0.90625,-1.0161133,-1.2260742,-1.2260742,-1.2651367,-1.2651367,-1.3500977,-1.3500977,-1.3500977,-1.3066406,-1.3144531,-1.2036133,-1.121582,-0.8354492,-0.8354492,-0.8354492,-0.63623047,-0.63623047,-0.55810547,-0.55810547,-0.55810547,-0.55810547,-0.55810547,-0.53564453,-0.5805664,-0.5805664,-0.5805664,-0.5805664,-0.6191406,-0.61621094,-0.6982422,-0.6982422,-0.7402344,-0.7402344,-0.6665039,-0.79589844,-0.79589844,-0.79589844,-0.85546875,-0.8564453,-0.8564453,-0.8564453,-0.8564453,-0.86865234,-0.83691406,-0.81103516,-0.8022461,-0.7841797,-0.82470703,-0.82470703,-0.82470703,-0.8300781,-0.8486328,-0.8486328,-0.8417969,-0.82714844,-0.82714844,-0.8149414,-0.7885742,-0.796875,-0.79296875,-0.7739258,-0.7739258,-0.7739258,
triangle,0,8,-0.7788086,-0.7788086,-0.8041992,-0.8041992,-0.8041992,-0.7919922,-0.7919922,-0.7866211,-0.7866211,-0.78808594,-0.79589844,-0.79589844,-0.7866211,-0.7866211,-0.7890625,-0.7890625,-0.7890625,-0.78466797,-0.77246094,-0.8066406,-0.8066406,-0.7988281,-0.7988281,-0.7988281,-0.80615234,-0.80615234,-0.8100586,-0.8100586,-0.79833984,-0.79833984,-0.79833984,-0.7871094,-0.7871094,-0.70947266,-0.70947266,-0.62890625,-0.46923828,-0.46923828,-0.46923828,-0.46923828,-0.46923828,-0.5,-0.5,-0.6166992,-0.6166992,-0.66552734,-0.79589844,-0.79589844,-0.81884766,-0.8364258,-0.8803711,-0.96875,-1.2480469,-1.2480469,-1.2480469,-1.2480469,-1.2480469,-1.2480469,-1.0625,-1.0625,-1.0625,-1.0625,-1.0625,-0.9589844,-0.9667969,-0.9667969,-0.9667969,-0.9667969,-0.8959961,-0.8959961,-0.8959961,-0.8959961,-0.8959961,-0.8959961,-0.8730469,-0.88671875,-0.84716797,-0.84716797,-0.84716797,-0.84716797,-0.84716797,-0.875,-0.83984375,-0.83984375,-0.7763672,-0.78027344,-0.7451172,-0.7451172,-0.70703125,-0.6503906,-0.6503906,-0.6503906,-0.6503906,-0.64941406,-0.62841797,-0.6147461,-0.6982422,-0.6982422,-0.6982422,-0.6982422,-0.6982422,-0.6982422,-1.1020508,-1.1020508,-1.1020508,-1.1020508,-1.1020508,-1.2236328,-1.2236328,-1.2900391,-1.3120117,-1.1416016,-1.1416016,-1.1416016,-1.1416016,-1.1416016,-0.8339844,-0.8339844,-0.8339844,-0.8339844,-0.79785156,-0.7026367,-0.46875,-0.42236328,-0.4248047,-0.4248047,-0.4248047,-0.46777344,-0.6484375,-0.6484375,-0.6484375,-0.6484375,-0.6508789,-0.6621094,-0.6621094,-0.6850586,-0.8203125,-0.8203125,-0.8203125,-0.8203125,-0.8203125,-0.8203125,-0.7705078,-0.7705078,-0.7631836,-0.7661133,-0.7685547,-0.76464844,-0.76171875,-0.7714844,-0.7714844,-0.76464844,-0.7739258,-0.7739258,-0.7739258,-0.7739258,-0.7949219,-0.7949219,-0.7949219,-0.7949219,-0.7949219,-0.7763672,
circleCw,0,8,-0.7763672,-0.7763672,-0.7763672,-0.78271484,-0.78271484,-0.77490234,-0.7739258,-0.7753906,-0.78222656,-0.7714844,-0.7524414,-0.7451172,-0.75,-0.75,-0.7451172,-0.7416992,-0.7416992,-0.75,-0.7597656,-0.7578125,-0.75439453,-0.75390625,-0.7661133,-0.7578125,-0.7504883,-0.76123047,-0.76171875,-0.76171875,-0.76171875,-0.7397461,-0.7426758,-0.7236328,-0.7236328,-0.70166016,-0.7011719,-0.7109375,-0.69970703,-0.69970703,-0.67578125,-0.67578125,-0.68896484,-0.68896484,-0.6401367,-0.6484375,-0.6484375,-0.6323242,-0.6323242,-0.63720703,-0.63720703,-0.63720703,-0.5908203,-0.5908203,-0.5722656,-0.5722656,-0.5722656,-0.60302734,-0.60302734,-0.6508789,-0.6567383,-0.71777344,-0.71777344,-0.71777344,-0.78222656,-0.78222656,-0.82373047,-0.82373047,-0.8276367,-0.8691406,-0.8876953,-0.88134766,-0.88134766,-0.8852539,-0.9472656,-0.9472656,-0.9711914,-0.9711914,-0.98535156,-1.0063477,-0.97753906,-0.97753906,-0.98779297,-0.9902344,-0.9902344,-0.9746094,-0.9746094,-1.0571289,-1.0571289,-1.0571289,-0.96435547,-0.96435547,-1.0957031,-1.0957031,-1.0454102,-1.0263672,-1.0175781,-0.9604492,-0.9604492,-0.9511719,-0.90185547,-0.8618164,-0.84765625,-0.84765625,-0.828125,-0.828125,-0.82128906,-0.7885742,-0.7885742,-0.7739258,-0.7734375,-0.6928711,-0.6928711,-0.6743164,-0.6743164,-0.6767578,-0.62939453,-0.62939453,-0.6152344,-0.6152344,-0.63183594,-0.6254883,-0.6230469,-0.6542969,-0.6586914,-0.66503906,-0.6948242,-0.6948242,-0.66064453,-0.66064453,-0.74853516,-0.74853516,-0.76660156,-0.76660156,-0.76660156,-0.83251953,-0.83251953,-0.85791016,-0.85791016,-0.85791016,-0.8339844,-0.8339844,-0.8613281,-0.8613281,-0.8154297,-0.8154297,-0.8154297,
circleCcw,0,8,-0.8540039,-0.8540039,-0.8540039,-0.8588867,-0.8588867,-0.87890625,-0.87890625,-0.8613281,-0.8613281,-0.8613281,-0.8613281,-0.8613281,-0.82421875,-0.82421875,-0.82421875,-0.8339844,-0.8432617,-0.8198242,-0.8198242,-0.8149414,-0.81152344,-0.796875,-0.8071289,-0.80029297,-0.7758789,-0.7758789,-0.8105469,-0.8105469,-0.8105469,-0.87597656,-0.9482422,-0.9692383,-0.9121094,-0.81152344,-0.8046875,-0.8046875,-0.79785156,-0.8051758,-0.9165039,-0.9165039,-0.9165039,-1.0092773,-1.0092773,-1.0288086,-0.9555664,-0.90283203,-0.90283203,-0.90283203,-0.8261719,-0.8261719,-0.8017578,-0.8017578,-0.70214844,-0.70214844,-0.70214844,-0.65625,-0.65625,-0.63964844,-0.64697266,-0.64697266,-0.4951172,-0.4951172,-0.53027344,-0.53027344,-0.55029297,-0.5097656,-0.4951172,-0.61376953,-0.61376953,-0.60791016,-0.60791016,-0.6435547,-0.6435547,-0.72265625,-0.7763672,-0.82373047,-1.0400391,-1.0400391,-1.0400391,-1.0473633,-1.0473633,-1.0410156,-1.0410156,-1.0024414,-1.0024414,-1.0024414,-0.9501953,-0.9501953,-0.9501953,-0.9501953,-0.9165039,-0.8642578,-0.8725586,-0.8847656,-0.8847656,-0.81884766,-0.81884766,-0.82958984,-0.82714844,-0.82714844,-0.98339844,-0.98339844,-0.94970703,-0.91259766,-0.91259766,-0.9199219,-0.9199219,-0.9199219,-0.92333984,-0.9165039,-0.9165039,-0.91308594,-0.89453125,-0.8574219,-0.8569336,-0.8569336,-0.7158203,-0.7158203,-0.7158203,-0.7158203,-0.7158203,-0.6479492,-0.6479492,-0.6386719,-0.63964844,-0.63427734,-0.6479492,-0.6479492,-0.6557617,-0.6459961,-0.6459961,-0.6479492,-0.65527344,-0.7158203,-0.7158203,-0.7402344,-0.73535156,-0.76904297,-0.76904297,-0.76708984,-0.76708984,-0.85498047,-0.84521484,-0.85302734,-0.85302734,-0.8227539,-0.8227539,-0.8227539,-0.8227539,-0.8227539,
left,0,9,-0.80859375,-0.80859375,-0.8017578,-0.8017578,-0.80126953,-0.80126953,-0.80126953,-0.79296875,-0.7915039,-0.7739258,-0.7739258,-0.7739258,-0.76904297,-0.77001953,-0.7890625,-0.7890625,-0.7817383,-0.78027344,-0.7807617,-0.7836914,-0.7836914,-0.7734375,-0.77246094,-0.76660156,-0.78125,-0.78125,-0.78027344,-0.7832031,-0.79345703,-0.79296875,-0.79003906,-0.7944336,-0.7944336,-0.7871094,-0.7871094,-0.8203125,-0.8408203,-0.8408203,-0.88916016,-0.9370117,-0.9667969,-0.9760742,-0.97802734,-0.9399414,-0.8964844,-0.8935547,-0.9140625,-1.1108398,-1.1108398,-0.9824219,-0.9824219,-0.9824219,-0.8642578,-0.8642578,-0.90478516,-0.91015625,-0.83203125,-0.7734375,-0.7734375,-0.76416016,-0.7597656,-0.8154297,-0.76171875,-0.66748047,-0.74072266,-0.74072266,-0.7270508,-0.7001953,-0.6435547,-0.6435547,-0.6796875,-0.7036133,-0.7036133,-0.828125,-0.828125,-0.8647461,-0.8647461,-0.8647461,-0.86279297,-0.8544922,-0.81591797,-0.81591797,-0.81591797,-0.84716797,-0.84716797,-0.8310547,-0.8310547,-0.7817383,-0.7817383,-0.7817383,-0.765625,-0.765625,-0.765625,-0.765625,-0.80078125,-0.8330078,-0.8198242,
right,0,9,-0.77001953,-0.77001953,-0.77001953,-0.77001953,-0.77001953,-0.7817383,-0.7783203,-0.7705078,-0.7636719,-0.76416016,-0.7841797,-0.7885742,-0.78125,-0.78125,-0.7758789,-0.7626953,-0.7729492,-0.7729492,-0.7729492,-0.7714844,-0.77001953,-0.77734375,-0.77734375,-0.76708984,-0.76123047,-0.76123047,-0.77441406,-0.77441406,-0.7680664,-0.7661133,-0.7661133,-0.77001953,-0.76123047,-0.7602539,-0.7602539,-0.72998047,-0.68896484,-0.65283203,-0.5786133,-0.5786133,-0.54248047,-0.54248047,-0.6660156,-0.6953125,-0.6953125,-0.7241211,-0.7241211,-0.79541016,-0.79541016,-0.79541016,-0.8144531,-0.8144531,-0.9189453,-0.9189453,-0.75146484,-0.75146484,-0.75146484,-0.7680664,-0.7680664,-0.9057617,-0.9057617,-1.0610352,-1.0610352,-1.0610352,-1.0463867,-1.0258789,-0.9458008,-0.9458008,-0.9458008,-0.95947266,-0.95947266,-0.9902344,-1.015625,-1.0415039,-1.03125,-0.9941406,-0.94921875,-0.88671875,-0.88671875,-0.88671875,-0.92089844,-0.92089844,-0.90527344,-0.93896484,-0.93896484,-0.93896484,-0.93896484,-0.93896484,-0.8964844,-0.8964844,-0.92285156,-0.92285156,-0.9223633,-0.94433594,-0.94433594,-0.9423828,-0.9448242,
up,0,9,-0.82177734,-0.82177734,-0.8457031,-0.8457031,-0.8457031,-0.84228516,-0.8486328,-0.8457031,-0.8408203,-0.8339844,-0.83740234,-0.81152344,-0.8173828,-0.8173828,-0.83496094,-0.83496094,-0.8491211,-0.8491211,-0.8491211,-0.8149414,-0.85253906,-0.8232422,-0.8066406,-0.80566406,-0.7753906,-0.7753906,-0.79003906,-0.7895508,-0.8046875,-0.80078125,-0.80078125,-0.8588867,-0.8588867,-0.9682617,-1.0678711,-1.2719727,-1.2719727,-1.4770508,-1.5234375,-1.5234375,-1.5668945,-1.6293945,-1.3291016,-1.3291016,-1.3291016,-0.99609375,-0.99609375,-0.5727539,-0.5727539,-0.5727539,-0.43896484,-0.34472656,-0.07861328,-0.07861328,0.28320313,0.28320313,0.28320313,0.46289063,0.46289063,0.49072266,0.5336914,0.3798828,0.3798828,0.3798828,0.38330078,0.32666016,0.3017578,0.3017578,0.28955078,0.28955078,0.28955078,0.22998047,0.22998047,0.20703125,0.18359375,0.18359375,0.14208984,0.14208984,0.13574219,0.13574219,
down,0,9,-0.7944336,-0.7944336,-0.7836914,-0.7836914,-0.7792969,-0.7792969,-0.7729492,-0.7631836,-0.76708984,-0.8173828,-0.82177734,-0.8408203,-0.828125,-0.8095703,-0.80810547,-0.81640625,-0.80859375,-0.80859375,-0.80126953,-0.80126953,-0.80126953,-0.81640625,-0.81640625,-0.8129883,-0.8129883,-0.8076172,-0.8076172,-0.8076172,-0.8095703,-0.8095703,-0.82910156,-0.82910156,-0.8408203,-0.8408203,-0.8408203,-0.8178711,-0.80126953,-0.79833984,-0.77246094,-0.77246094,-0.7470703,-0.6791992,-0.4711914,-0.4711914,-0.39111328,-0.37890625,-0.30322266,-0.2626953,-0.2626953,-0.32861328,-0.32861328,-0.4658203,-0.4658203,-0.4658203,-0.5517578,-0.5517578,-0.6435547,-0.6435547,-0.81689453,-0.81689453,-0.9404297,-0.8183594,-0.68847656,-0.78808594,-0.78808594,-0.78808594,-0.7783203,-0.69970703,-0.70996094,-0.6694336,-0.59375,-0.59375,-0.53808594,-0.48632813,-0.4765625,-0.45263672,-0.37109375,-0.21044922,-0.21044922,-0.16796875,-0.13085938,-0.13085938,-0.11425781,-0.11425781,-0.11425781,-0.10498047,-0.10498047,-0.071777344,-0.071777344,-0.067871094,-0.067871094,-0.067871094,-0.07519531,-0.095703125,-0.115234375,-0.115234375,-0.10107422,-0.10107422,-0.104003906,
square,0,9,-0.6923828,-0.6923828,-0.6923828,-0.72021484,-0.72021484,-0.72265625,-0.72265625,-0.7207031,-0.7158203,-0.7158203,-0.7084961,-0.7084961,-0.70751953,-0.70751953,-0.7167969,-0.7167969,-0.7167969,-0.70458984,-0.71533203,-0.7163086,-0.71484375,-0.7089844,-0.7089844,-0.7089844,-0.69384766,-0.69384766,-0.6948242,-0.71435547,-0.70751953,-0.70703125,-0.7006836,-0.69628906,-0.7001953,-0.7036133,-0.70166016,-0.70166016,-0.7060547,-0.7060547,-0.70214844,-0.7006836,-0.69140625,-0.69384766,-0.6855469,-0.67822266,-0.67822266,-0.6538086,-0.6176758,-0.5996094,-0.6352539,-0.6352539,-0.5756836,-0.5756836,-0.5756836,-0.5756836,-0.5756836,-0.56689453,-0.5776367,-0.58935547,-0.58935547,-0.6459961,-0.6459961,-0.65625,-0.6621094,-0.6855469,-0.7294922,-0.7397461,-0.7241211,-0.76416016,-0.76416016,-0.75878906,-0.75878906,-0.75097656,-0.7241211,-0.7241211,-0.7055664,-0.6430664,-0.59521484,-0.59521484,-0.55078125,-0.4140625,-0.4140625,-0.39208984,-0.39208984,-0.46777344,-0.46777344,-0.55810547,-0.55810547,-0.57177734,-0.67089844,-0.67089844,-0.82666016,-0.82666016,-0.8701172,-0.8300781,-0.89208984,-1.0610352,-1.0610352,-1.0952148,-1.0952148,-1.137207,-1.1689453,-1.1689453,-1.1538086,-1.1450195,-1.1113281,-1.0668945,-1.0283203,-0.9916992,-0.9916992,-0.9169922,-0.9169922,-0.8691406,-0.8442383,-0.86083984,-0.8261719,-0.79785156,-0.7832031,-0.7661133,-0.7895508,-0.7817383,-0.80371094,-0.8105469,-0.8334961,-0.78564453,-0.78564453,-0.78564453,-0.7783203,-0.7783203,-0.79785156,-0.77783203,-0.7739258,-0.7363281,-0.7363281,-0.6772461,-0.72021484,-0.71191406,-0.71191406,-0.71191406,-0.7392578,-0.7392578,-0.6899414,-0.6977539,-0.6748047,-0.6748047,-0.6748047,-0.7548828,-0.7548828,-0.7895508,-0.7573242,-0.8066406,-0.8066406,-0.8540039,-0.93066406,-0.93359375,-0.9448242,-1.1801758,-1.1801758,-1.25,-1.25,-1.3383789,-1.3383789,-1.3144531,-1.2900391,-1.21875,-1.1279297,-1.1279297,-1.0932617,-0.9121094,-0.9121094,-0.8144531,-0.734375,-0.609375,-0.4819336,-0.43701172,-0.46191406,-0.46191406,-0.4663086,-0.4663086,-0.57714844,-0.57714844,-0.57714844,-0.6689453,-0.6689453,-0.7709961,-0.7709961,-0.8359375,-0.8359375,-0.8696289,-0.88623047,-0.88623047,-0.87890625,-0.87890625,-0.87890625,-0.86328125,-0.8574219,-0.84228516,-0.8383789,-0.78759766,-0.78759766,-0.76953125,-0.8276367,-0.8276367,-0.8095703,-0.8066406,-0.81396484,-0.8017578,-0.8105469,-0.8208008,-0.8208008,-0.8808594,-0.8808594,-0.8774414,-0.8774414,-0.8774414,-0.8222656,-0.8222656,-0.8222656,-0.8222656,-0.8222656,-0.80859375,-0.81689453,-0.8491211,-0.8540039,-0.8623047,-0.82666016,-0.82666016,-0.8120117,-0.8120117,-0.8310547,-0.8310547,-0.8310547,-0.83935547,-0.83984375,-0.85009766,
triangle,0,9,-0.79248047,-0.79248047,-0.79248047,-0.79248047,-0.79248047,-0.78466797,-0.7758789,-0.7866211,-0.79003906,-0.78515625,-0.78222656,-0.78222656,-0.7788086,-0.7788086,-0.77978516,-0.7866211,-0.7993164,-0.7949219,-0.77001953,-0.7919922,-0.7919922,-0.79785156,-0.8095703,-0.796875,-0.78125,-0.78125,-0.7871094,-0.78759766,-0.7841797,-0.77734375,-0.77734375,-0.77978516,-0.77734375,-0.75439453,-0.73095703,-0.6948242,-0.6328125,-0.54296875,-0.49267578,-0.5131836,-0.5131836,-0.5131836,-0.5131836,-0.5253906,-0.5253906,-0.4814453,-0.4814453,-0.61328125,-0.61328125,-0.6611328,-0.7910156,-0.7910156,-0.85253906,-0.8623047,-0.9033203,-0.9873047,-0.9873047,-1.0424805,-1.0424805,-1.046875,-1.046875,-1.046875,-1.0830078,-1.0493164,-1.0009766,-1.0009766,-0.97216797,-0.97216797,-0.9291992,-0.88916016,-0.88916016,-0.8774414,-0.8774414,-0.89697266,-0.8330078,-0.8330078,-0.8334961,-0.85302734,-0.79589844,-0.79589844,-0.79589844,-0.71240234,-0.71240234,-0.75878906,-0.75878906,-0.6484375,-0.6484375,-0.6484375,-0.6616211,-0.6616211,-0.6855469,-0.6855469,-0.68310547,-0.68310547,-0.65625,-0.67089844,-0.67089844,-0.6738281,-0.6586914,-0.62841797,-0.6303711,-0.6303711,-0.6088867,-0.6088867,-0.5800781,-0.5800781,-0.65283203,-0.6894531,-0.6982422,-0.7480469,-0.8120117,-0.86816406,-0.9267578,-0.9267578,-0.9628906,-1.0273438,-1.0771484,-1.1103516,-1.1171875,-1.1660156,-1.1660156,-1.0585938,-0.96240234,-0.96240234,-0.96240234,-0.96240234,-0.9248047,-0.85839844,-0.76123047,-0.68310547,-0.5595703,-0.5595703,-0.5942383,-0.6166992,-0.57421875,-0.5488281,-0.53125,-0.5620117,-0.60253906,-0.61376953,-0.63427734,-1.0019531,-1.0019531,-1.0019531,-1.0019531,-0.99365234,-0.99365234,-0.99365234,-0.55126953,-0.55126953,-0.55126953,-0.55126953,-0.80371094,-0.80371094,-0.95654297,-0.828125,-0.828125,-0.828125,-0.828125,-0.84277344,-0.84277344,-0.84277344,-0.84277344,-0.84277344,
circleCw,0,9,-0.7602539,-0.7602539,-0.7685547,-0.7685547,-0.7685547,-0.7871094,-0.7871094,-0.7631836,-0.7631836,-0.7602539,-0.7548828,-0.7548828,-0.74121094,-0.7338867,-0.73535156,-0.7583008,-0.7602539,-0.75146484,-0.7368164,-0.7480469,-0.7480469,-0.74365234,-0.7392578,-0.71875,-0.7216797,-0.7216797,-0.7158203,-0.7158203,-0.67285156,-0.67285156,-0.67285156,-0.65966797,-0.64990234,-0.6323242,-0.6381836,-0.6464844,-0.6430664,-0.6635742,-0.6455078,-0.6455078,-0.6401367,-0.63720703,-0.6357422,-0.6459961,-0.6694336,-0.6801758,-0.6586914,-0.64990234,-0.63427734,-0.6328125,-0.67285156,-0.67285156,-0.6923828,-0.6723633,-0.66308594,-0.66308594,-0.66308594,-0.6870117,-0.6870117,-0.75,-0.75,-0.78564453,-0.78564453,-0.78564453,-0.7709961,-0.7709961,-0.8330078,-0.8330078,-0.87158203,-0.9658203,-1.0273438,-1.03125,-1.03125,-0.9995117,-0.9995117,-0.9716797,-0.8959961,-0.8959961,-0.87646484,-0.87646484,-0.7519531,-0.7519531,-0.7519531,-0.7519531,-0.7519531,-0.81103516,-0.81103516,-0.7885742,-0.7685547,-0.7685547,-0.7685547,-0.7685547,-0.7763672,-0.7763672,-0.7763672,-0.8823242,-0.8823242,-0.93066406,-0.91748047,-0.9433594,-1.003418,-1.003418,-0.9477539,-0.9477539,-0.95166016,-0.9277344,-0.89697266,-0.8261719,-0.8261719,-0.7475586,-0.7475586,-0.6567383,-0.6567383,-0.6230469,-0.5644531,-0.5644531,-0.55029297,-0.55029297,-0.55859375,-0.57714844,-0.59472656,-0.6069336,-0.6069336,-0.63916016,-0.63916016,-0.6411133,-0.6113281,-0.6113281,-0.57910156,-0.57910156,-0.64990234,-0.64990234,-0.77783203,-0.77783203,-0.77783203,-0.83691406,-0.83691406,-0.84033203,-0.83447266,-0.83447266,-0.7783203,-0.7783203,-0.78125,-0.7758789,-0.76708984,-0.76708984,-0.76708984,-0.79589844,-0.79589844,-0.80566406,-0.79345703,-0.8095703,-0.8095703,-0.8095703,-0.79052734,-0.76953125,
circleCcw,0,9,-0.8510742,-0.8510742,-0.8588867,-0.8588867,-0.8540039,-0.8540039,-0.8642578,-0.8720703,-0.87597656,-0.8823242,-0.8823242,-0.8798828,-0.8745117,-0.86865234,-0.8720703,-0.8720703,-0.8647461,-0.8647461,-0.8828125,-0.8828125,-0.85595703,-0.8623047,-0.859375,-0.85595703,-0.8588867,-0.8588867,-0.86328125,-0.8652344,-0.8725586,-0.8696289,-0.8696289,-0.85839844,-0.85839844,-0.86279297,-0.86279297,-0.8725586,-0.8730469,-0.8730469,-0.9003906,-0.8979492,-0.9160156,-0.9458008,-0.9785156,-0.96728516,-0.91308594,-0.85839844,-0.85839844,-0.8496094,-0.83740234,-0.86572266,-0.72558594,-0.72558594,-0.6303711,-0.6303711,-0.51464844,-0.51464844,-0.5058594,-0.49267578,-0.49267578,-0.47216797,-0.47216797,-0.5576172,-0.5576172,-0.5576172,-0.6044922,-0.6044922,-0.7182617,-0.7182617,-0.6777344,-0.6777344,-0.65625,-0.68115234,-0.68115234,-0.7636719,-0.81591797,-0.9716797,-0.9716797,-0.9716797,-1.0410156,-1.0410156,-0.99609375,-0.99609375,-1.0166016,-1.1005859,-1.1538086,-1.1020508,-0.9057617,-0.9057617,-0.92578125,-0.92578125,-0.8666992,-0.8666992,-0.8666992,-0.8666992,-0.8666992,-0.88134766,-0.9145508,-0.9194336,-0.9194336,-0.9194336,-0.96875,-0.96875,-0.9794922,-0.95214844,-0.95214844,-0.92529297,-0.92529297,-0.74121094,-0.74121094,-0.6660156,-0.6230469,-0.60595703,-0.68603516,-0.68603516,-0.62109375,-0.62109375,-0.53466797,-0.53466797,-0.53466797,-0.5131836,-0.5058594,-0.5600586,-0.5600586,-0.69189453,-0.68847656,-0.6542969,-0.63134766,-0.63134766,-0.6533203,-0.63134766,-0.6767578,-0.75878906,-0.75878906,-0.83154297,-0.83154297,-0.8339844,-0.8339844,-0.8339844,-0.80029297,-0.76123047,-0.7895508,-0.7895508,-0.7895508,-0.7919922,-0.7919922,-0.7841797,-0.7841797,
left,0,10,-0.828125,-0.828125,-0.828125,-0.8378906,-0.8378906,-0.8442383,-0.83935547,-0.8310547,-0.8251953,-0.8203125,-0.83740234,-0.83740234,-0.83496094,-0.83496094,-0.8413086,-0.8417969,-0.8569336,-0.85058594,-0.8457031,-0.8457031,-0.84472656,-0.85253906,-0.8540039,-0.83496094,-0.8251953,-0.8251953,-0.83691406,-0.8378906,-0.8378906,-0.85546875,-0.85546875,-0.85839844,-0.85839844,-0.86035156,-0.8925781,-0.8925781,-0.8461914,-0.8461914,-0.8823242,-0.8823242,-0.91015625,-0.91015625,-0.91015625,-1.0258789,-1.0258789,-1.0161133,-1.0913086,-1.0483398,-1.0483398,-1.0483398,-0.92333984,-0.92333984,-0.8691406,-0.80810547,-0.80810547,-0.7866211,-0.7866211,-0.6713867,-0.6713867,-0.6816406,-0.6245117,-0.6245117,-0.6738281,-0.6738281,-0.70751953,-0.70751953,-0.7470703,-0.7290039,-0.7324219,-0.72558594,-0.72558594,-0.7817383,-0.7817383,-0.7817383,-0.8383789,-0.8383789,-0.9140625,-0.9140625,-0.85302734,-0.85302734,-0.85302734,-0.81103516,-0.77734375,-0.7319336,-0.7319336,-0.74121094,-0.74121094,-0.74121094,-0.7915039,-0.7915039,
right,0,10,-0.7680664,-0.7680664,-0.79345703,-0.79345703,-0.79345703,-0.7871094,-0.7944336,-0.8041992,-0.7973633,-0.7973633,-0.7680664,-0.7680664,-0.77441406,-0.7866211,-0.80810547,-0.80322266,-0.8076172,-0.78808594,-0.78808594,-0.7714844,-0.7714844,-0.7729492,-0.76660156,-0.7729492,-0.7661133,-0.76171875,-0.75,-0.71875,-0.68652344,-0.6455078,-0.6455078,-0.6777344,-0.6777344,-0.6425781,-0.61865234,-0.64208984,-0.66503906,-0.72509766,-0.72509766,-0.72509766,-0.72509766,-0.75927734,-0.75927734,-1.0976563,-0.8154297,-0.8154297,-0.8154297,-0.8154297,-0.68310547,-0.68310547,-0.58447266,-0.48632813,-0.6425781,-0.6425781,-0.8544922,-1.0200195,-1.0200195,-1.1240234,-1.1865234,-1.1889648,-1.152832,-1.0444336,-0.99316406,-0.99316406,-1.0615234,-1.1313477,-1.1674805,-1.1308594,-1.1308594,-1.0805664,-1.0805664,-1.0317383,-1.0317383,-1.0253906,-0.9814453,-0.9814453,-0.9453125,-0.92041016,-0.89697266,-0.89697266,-0.89697266,-0.92089844,-0.92089844,-0.93408203,-0.93408203,-0.93310547,-0.9316406,-0.9291992,-0.9345703,-0.92041016,
up,0,10,-0.8027344,-0.8027344,-0.8027344,-0.7993164,-0.7993164,-0.78564453,-0.78564453,-0.78515625,-0.8144531,-0.8144531,-0.83447266,-0.8417969,-0.84814453,-0.84814453,-0.86816406,-0.86279297,-0.8613281,-0.86035156,-0.8569336,-0.8354492,-0.8251953,-0.83935547,-0.83935547,-0.8491211,-0.86865234,-0.8671875,-0.85498047,-0.8618164,-0.86035156,-0.8417969,-0.8417969,-0.8598633,-0.8598633,-1.0507813,-1.0507813,-1.0507813,-1.3271484,-1.6894531,-1.690918,-1.690918,-1.9169922,-1.9169922,-1.956543,-1.7993164,-1.5834961,-0.64697266,-0.64697266,-0.64697266,-0.64697266,-0.64697266,-0.40234375,-0.40234375,-0.26171875,-0.15234375,0.0087890625,0.30371094,0.30371094,0.4946289,0.4946289,0.53808594,0.52246094,0.55126953,0.50439453,0.50439453,0.5102539,0.5102539,0.4794922,0.4794922,0.46972656,0.43603516,0.43603516,0.4091797,0.3701172,0.38867188,0.3955078,0.39208984,0.2998047,0.2998047,0.2626953,0.2626953,0.2626953,0.20605469,0.20605469,0.107421875,0.107421875,0.08251953,0.06347656,0.07714844,
