left,0,0,-0.087402344,-0.087402344,-0.087402344,-0.18896484,-0.18896484,-0.18896484,-0.18896484,-0.1953125,-0.1953125,-0.16601563,-0.16601563,-0.11621094,-0.072753906,-0.032714844,-0.029785156,-0.033691406,0.036621094,0.036621094,0.036621094,0.052734375,0.060058594,0.046875,0.045898438,0.045898438,0.08300781,0.123046875,0.08105469,0.08105469,0.08691406,0.09326172,0.12060547,0.13427734,0.11328125,0.11376953,0.13574219,0.12207031,0.09033203,0.01953125,0.16210938,0.16210938,0.091308594,0.091308594,0.091308594,0.1381836,0.15527344,0.19970703,0.19970703,0.18652344,0.18652344,0.18652344,0.19726563,0.19726563,0.1459961,0.1459961,0.11376953,0.11376953,0.11376953,0.09716797,0.09716797,0.11279297,0.11279297,0.07714844,0.07714844,0.07714844,
right,0,0,0.08251953,0.08251953,0.123046875,0.123046875,0.123046875,0.079589844,0.079589844,0.02734375,0.0078125,0.0078125,0.01953125,0.0034179688,-0.0107421875,-0.024414063,-0.020019531,-0.020019531,-0.020019531,0.0146484375,0.036132813,0.012207031,0.0087890625,0.061035156,0.064453125,0.04248047,0.05126953,0.068847656,0.068847656,0.068847656,0.19140625,0.13476563,0.072265625,0.1899414,0.21679688,0.2397461,0.20654297,0.19970703,0.20751953,0.20751953,0.20751953,0.20751953,0.19873047,0.24316406,0.19189453,0.21044922,0.21044922,0.2084961,0.2084961,0.18798828,0.18798828,0.18798828,0.171875,0.171875,0.16552734,0.16552734,0.15820313,0.13378906,0.12597656,0.10595703,0.106933594,0.076171875,0.03955078,0.01171875,-0.0087890625,-0.0087890625,0.016601563,-0.13964844,-0.13964844,-0.13964844,-0.1899414,-0.1899414,-0.1899414,-0.39404297,-0.39404297,-0.39404297,-0.39404297,-0.39404297,-0.03955078,-0.03955078,-0.15185547,-0.15185547,-0.15185547,-0.15185547,-0.15185547,
up,0,0,0.19921875,0.19921875,0.19921875,0.1928711,0.1928711,0.19433594,0.19824219,0.19824219,0.19384766,0.1821289,0.20703125,0.21191406,0.24951172,0.2602539,0.24560547,0.3017578,0.29785156,0.32861328,0.29785156,0.23730469,0.2055664,0.13330078,0.10253906,0.078125,0.08544922,0.044433594,0.09082031,0.09326172,0.09326172,0.26611328,0.26611328,0.37353516,0.3959961,0.49023438,0.6513672,0.6513672,0.7207031,0.7207031,0.8046875,0.8432617,0.8881836,0.9560547,0.9560547,1.0390625,1.0390625,1.0390625,1.0834961,1.0834961,1.0693359,1.0693359,1.1005859,1.1005859,1.1005859,1.0063477,1.0063477,1.0224609,1.0571289,0.9995117,0.9995117,0.9482422,0.84765625,0.84765625,0.84765625,0.84765625,0.84765625,0.8339844,0.8339844,
down,0,0,0.045898438,0.045898438,0.041992188,0.041992188,0.041992188,0.037597656,0.038085938,0.04345703,0.04345703,0.040527344,0.041015625,0.036132813,0.041992188,0.041992188,0.038085938,0.037109375,0.03515625,0.04248047,0.04248047,0.034179688,0.03125,0.03564453,0.038085938,0.038085938,0.037597656,0.037597656,0.03515625,0.040527344,0.037597656,0.038085938,0.034179688,0.037597656,0.037597656,0.0390625,0.0390625,0.04296875,0.04638672,0.038085938,0.038085938,0.041503906,0.034179688,0.0390625,0.038085938,0.03955078,0.051757813,0.047851563,0.04638672,0.04638672,0.051757813,0.051757813,0.047851563,0.047851563,0.046875,0.046875,0.06982422,0.05859375,0.06640625,0.04638672,0.04638672,0.016601563,0.016601563,0.016601563,-0.037597656,-0.037597656,-0.040039063,-0.092285156,-0.125,-0.123046875,-0.15429688,-0.23046875,-0.23046875,-0.5576172,-0.5576172,-0.5576172,-0.70458984,-0.8569336,-1.0268555,-1.1367188,-0.953125,-1.2768555,-1.2768555,-1.4213867,-1.2832031,-1.159668,-1.2529297,-1.1264648,-0.92285156,-0.92285156,-0.8486328,-0.8100586,-0.828125,-0.828125,-0.80566406,-0.87402344,-0.88964844,-0.9213867,-0.9213867,-0.9199219,-0.9189453,-0.89160156,-0.9008789,-0.9008789,-0.92626953,-0.89501953,-0.89501953,-0.89501953,-0.89501953,-0.89404297,-0.87597656,-0.86621094,-0.86328125,-0.86328125,-0.8774414,-0.8774414,-0.8803711,-0.8803711,
square,0,0,0.22021484,0.22021484,0.22021484,0.20898438,0.20898438,0.19091797,0.19091797,0.17529297,0.10644531,0.15136719,0.0073242188,0.0073242188,0.20166016,0.20166016,-0.06542969,-0.8027344,-0.029785156,0.6611328,0.6542969,0.057617188,-0.7841797,0.6123047,-0.7192383,0.4482422,-0.6533203,-0.5024414,0.24853516,0.43603516,-0.8125,-0.48095703,-0.17041016,-0.25390625,-0.37451172,-0.39013672,-0.4116211,-0.4951172,-0.5600586,-0.54052734,-0.6123047,-0.6123047,-0.6123047,-0.7216797,-0.70947266,-0.7138672,-0.7841797,-0.77246094,-0.69677734,-0.69677734,-0.69140625,-0.61865234,-0.55322266,-0.55322266,-0.56933594,-0.56933594,-0.5439453,-0.50683594,-0.59228516,-0.59228516,-0.59228516,-0.59228516,-0.36816406,-0.36816406,-0.5332031,-0.5332031,-0.36621094,-0.43310547,-0.43310547,-0.46875,-0.46875,-0.39746094,-0.38720703,-0.38720703,-0.38720703,-0.20507813,-0.20507813,-0.20507813,-0.009765625,-0.009765625,-0.009765625,0.028808594,0.08203125,0.08203125,0.08886719,0.22070313,0.22070313,0.09863281,0.09863281,0.2788086,-0.27392578,-0.27392578,0.24707031,0.24707031,0.24707031,0.25878906,0.25878906,0.26416016,0.28515625,0.34765625,0.37353516,0.3720703,0.36279297,0.4008789,0.41796875,0.41796875,0.41796875,0.39501953,0.39013672,0.38427734,0.38330078,0.40283203,0.37597656,0.3774414,0.38183594,0.390625,0.37597656,0.37597656,0.3779297,0.3779297,0.3413086,0.3413086,0.3413086,0.33398438,0.2915039,0.2915039,0.2915039,0.2915039,
triangle,0,0,0.29052734,0.29052734,0.29003906,0.29003906,0.2939453,0.2836914,0.29052734,0.2758789,0.27978516,0.2680664,0.25732422,0.25732422,0.21728516,0.21728516,0.111328125,0.111328125,0.111328125,0.078125,0.05810547,0.03857422,0.03857422,0.014160156,-0.03515625,-0.083496094,-0.107910156,-0.056152344,-0.1015625,-0.1015625,-0.24414063,-0.24414063,-0.4111328,-0.4111328,-0.4111328,-0.37939453,-0.38085938,-0.46191406,-0.44726563,-0.43066406,-0.47460938,-0.47460938,-0.44189453,-0.46142578,-0.46142578,-0.49121094,-0.45996094,-0.45361328,-0.45361328,-0.51416016,-0.51416016,-0.51416016,-0.5239258,-0.5239258,-0.5239258,-0.60009766,-0.6738281,-0.6738281,-0.9716797,-0.8911133,-0.8911133,-0.8911133,-0.8911133,-0.75146484,-0.75146484,-0.75146484,-0.75146484,-0.75146484,-0.77685547,-0.77685547,-0.77685547,-0.77685547,-0.77685547,-0.7895508,-0.74560547,-0.70996094,-0.8227539,-0.8100586,-0.8100586,-0.8100586,-0.8100586,-0.8100586,-0.7626953,-0.7626953,-0.7626953,-0.6591797,-0.6591797,-0.67529297,-0.67529297,-0.5600586,-0.5600586,-0.45898438,-0.34033203,-0.34033203,-0.3876953,-0.3876953,0.06591797,0.5444336,0.5444336,0.43554688,0.4243164,0.4243164,0.4243164,0.4243164,0.4243164,0.4296875,0.42041016,0.4658203,0.49365234,0.48876953,0.43164063,0.4892578,0.4892578,0.4892578,0.45214844,0.45214844,0.4248047,0.4248047,0.43359375,0.43408203,0.421875,0.4423828,0.4423828,0.4140625,0.3852539,0.4169922,0.41308594,0.41308594,0.41308594,
circleCw,0,0,0.29833984,0.29833984,0.27392578,0.27392578,0.27539063,0.28710938,0.27783203,0.2548828,0.2548828,0.2241211,0.2241211,0.2241211,0.2290039,0.23583984,0.23583984,0.23583984,0.22265625,0.22265625,0.22265625,0.23730469,0.23486328,0.26904297,0.26904297,0.2524414,0.24023438,0.21826172,0.140625,0.2705078,0.23144531,-0.00390625,0.13623047,0.036132813,0.036132813,-0.16601563,-0.25683594,-0.26660156,-0.32128906,-0.4243164,-0.484375,-0.5317383,-0.60546875,-0.6665039,-0.76171875,-0.76171875,-0.84472656,-0.8300781,-0.8955078,-0.9428711,-1.0625,-1.0576172,-1.0576172,-1.0576172,-1.1074219,-1.1074219,-0.9160156,-0.9160156,-0.9160156,-0.83935547,-0.7397461,-0.83740234,-0.83740234,-0.6064453,-0.6064453,-0.6064453,-0.64453125,-0.59277344,-0.5185547,-0.5673828,-0.2397461,-0.2397461,-0.2397461,-0.3544922,-0.3544922,-0.28173828,-0.18945313,-0.18945313,-0.19140625,-0.16601563,-0.1274414,-0.06298828,-0.051757813,0.016113281,0.016113281,0.076660156,0.13623047,0.24414063,0.24414063,0.33203125,0.33203125,0.4033203,0.40576172,0.40576172,0.4584961,0.4584961,0.4584961,0.4711914,0.4711914,0.55371094,0.55371094,0.5629883,0.5629883,0.55566406,0.5571289,0.5571289,0.49804688,0.49804688,0.47998047,0.44335938,0.44335938,0.42089844,0.41015625,0.40966797,0.3540039,0.3540039,0.38867188,0.44677734,0.44677734,0.44677734,0.3413086,0.30859375,0.30859375,0.3359375,0.3359375,
circleCcw,0,0,-0.5102539,-0.5102539,-0.87353516,-0.87353516,-0.87353516,-0.83203125,-0.9423828,-0.80078125,-0.87841797,-0.9555664,-0.83691406,-0.85498047,-0.9580078,-1.0449219,-1.0693359,-0.9736328,-0.92089844,-0.96484375,-0.96484375,-0.8823242,-0.78466797,-0.69384766,-0.74902344,-0.7080078,-0.5576172,-0.5576172,-0.5576172,-0.5161133,-0.4272461,-0.32177734,-0.32177734,-0.140625,-0.140625,-0.140625,-0.05419922,-0.05419922,0.005859375,0.05908203,0.09033203,0.12792969,0.12158203,0.13574219,0.16210938,0.2133789,0.2133789,0.24609375,0.24609375,0.24609375,0.2602539,0.25146484,0.25878906,0.25878906,0.25878906,0.27734375,0.2368164,0.22167969,0.22167969,0.17236328,0.17236328,0.19824219,0.2211914,0.2211914,0.24511719,0.26171875,0.2397461,0.23828125,0.23828125,0.22998047,0.22998047,0.20800781,0.23291016,0.23291016,0.21435547,0.21435547,0.23095703,0.23095703,0.18457031,0.18457031,0.18457031,0.22070313,0.22070313,0.20166016,0.20166016,0.1928711,0.19970703,0.20361328,0.20605469,0.20605469,
left,0,1,-0.12011719,-0.12011719,-0.12011719,0.08105469,0.08105469,0.091796875,0.110839844,0.071777344,0.071777344,0.11425781,0.12695313,0.13427734,0.123535156,0.140625,0.11328125,0.11328125,0.11328125,0.14160156,0.14160156,0.110839844,0.103027344,0.24414063,0.24414063,-0.012207031,-0.29052734,-0.29052734,0.57666016,0.32666016,0.17578125,0.1508789,0.106933594,0.13916016,0.13916016,0.1430664,0.16796875,0.16796875,0.15771484,0.15771484,0.20605469,0.18261719,0.18261719,0.08642578,0.08642578,0.1508789,0.1508789,0.15966797,0.15966797,0.15966797,0.10888672,0.10888672,0.16503906,0.16503906,0.13378906,0.1274414,0.10986328,0.17333984,0.17333984,0.17675781,0.11279297,0.11279297,0.11279297,0.11279297,0.11279297,0.11279297,0.13378906,0.16308594,0.08544922,0.08544922,
right,0,1,0.17285156,0.17285156,0.17138672,0.18457031,0.18847656,0.18847656,0.19335938,0.22753906,0.22753906,0.18310547,0.18310547,0.18603516,0.1953125,0.1953125,0.1850586,0.19384766,0.19580078,0.19580078,0.19482422,0.20263672,0.20263672,0.19238281,0.19238281,0.19238281,0.20117188,0.20117188,0.1928711,0.19628906,0.19335938,0.19970703,0.19970703,0.18847656,0.17626953,0.14550781,0.14550781,0.14550781,0.08886719,0.08886719,0.048339844,0.048339844,0.036621094,0.020996094,-0.026855469,-0.023925781,-0.023925781,-0.12695313,-0.12695313,-0.1303711,-0.1303711,-0.1303711,-0.17285156,-0.18701172,-0.21533203,-0.21533203,-0.25585938,-0.25585938,-0.25585938,-0.22558594,-0.28173828,-0.23876953,-0.23876953,-0.23876953,-0.17871094,-0.17871094,-0.16503906,-0.16503906,-0.07763672,-0.022949219,0.009277344,0.06933594,0.06933594,0.11279297,0.11279297,0.111816406,0.084472656,0.084472656,0.10058594,0.10058594,0.13476563,0.030273438,0.030273438,0.083984375,0.08935547,0.06347656,0.06347656,0.03564453,0.03564453,0.03564453,0.022949219,0.022949219,0.032226563,0.016113281,-0.0063476563,-0.0063476563,-0.0063476563,0.020019531,0.013671875,0.038085938,0.038085938,0.038085938,0.033691406,0.033691406,0.03515625,0.027832031,
up,0,1,0.015625,0.015625,0.0053710938,0.0053710938,-0.025878906,-0.07910156,-0.07910156,-0.14404297,-0.07421875,0.17333984,-0.22216797,-0.21289063,0.68359375,0.45507813,-0.0043945313,0.10888672,-0.04296875,-0.04296875,-0.015136719,-0.016601563,-0.017578125,-0.0048828125,-0.0048828125,-0.0034179688,-0.009277344,-0.013671875,-0.0063476563,-0.0087890625,-0.01171875,-0.0053710938,-0.0034179688,-0.0034179688,-0.0034179688,-0.0087890625,-0.0087890625,-0.018066406,-0.049804688,-0.05126953,-0.067871094,-0.052246094,-0.06640625,-0.068847656,-0.114746094,-0.071777344,-0.13867188,-0.20361328,-0.16894531,-0.18652344,-0.18652344,-0.23632813,-0.23632813,-0.22070313,-0.24560547,-0.27246094,-0.071777344,-0.071777344,0.14941406,0.14941406,0.14941406,0.37158203,0.37158203,0.46679688,0.5864258,0.6645508,0.6645508,0.70996094,0.80566406,0.80566406,0.8286133,0.8286133,0.8286133,0.96777344,0.96777344,0.97216797,0.97216797,1.0170898,1.0170898,0.99072266,0.8857422,0.8857422,0.9213867,0.9560547,0.9658203,0.96728516,0.94433594,0.94873047,0.94873047,0.90527344,0.90527344,0.8676758,0.8017578,0.8017578,0.796875,0.796875,0.6152344,0.6464844,0.6464844,0.5839844,0.5839844,0.65185547,0.65185547,0.5908203,0.49902344,
down,0,1,0.088378906,0.088378906,0.083984375,0.083984375,0.080078125,0.084472656,0.104003906,0.08886719,0.08886719,0.09667969,0.10058594,0.099121094,0.09277344,0.107421875,0.10595703,0.10449219,0.107421875,0.11816406,0.10498047,0.10058594,0.10205078,0.10595703,0.09716797,0.09716797,0.09716797,-0.061523438,-0.061523438,-0.061523438,-0.11767578,-0.11767578,0.28515625,0.1274414,0.09667969,0.09033203,0.09033203,0.087890625,0.061035156,0.026367188,0.008300781,0.014160156,-0.114746094,-0.114746094,-0.27978516,-0.27978516,-0.27978516,-0.36083984,-0.36083984,-0.6123047,-0.6123047,-0.8276367,-0.8276367,-0.8276367,-0.95703125,-0.95703125,-1.0214844,-1.0214844,-0.8925781,-1.0566406,-1.0566406,-0.99072266,-0.99072266,-0.8330078,-0.8569336,-0.8569336,-0.8276367,-0.8276367,-0.8276367,-0.8276367,-0.8383789,-0.8383789,-0.8383789,-0.85791016,-0.8300781,-0.8833008,-0.8833008,-0.88134766,-0.88134766,-0.88134766,-0.87939453,-0.87939453,-0.8598633,-0.8598633,-0.8598633,-0.8701172,-0.8833008,-0.8798828,-0.8652344,-0.8857422,-0.8857422,-0.8857422,-0.8691406,-0.8691406,
square,0,1,0.27197266,0.27197266,0.26367188,0.26367188,0.25878906,0.25683594,0.25683594,0.2607422,0.2607422,0.2602539,0.2602539,0.26708984,0.2626953,0.2626953,0.25927734,0.25927734,0.2553711,0.2548828,0.26416016,0.25195313,0.25195313,0.25927734,0.265625,0.26220703,0.25195313,0.2602539,0.25830078,0.25830078,0.2607422,0.25585938,0.25585938,0.2553711,0.2553711,0.25927734,0.25927734,0.23779297,0.23779297,0.23779297,0.23339844,0.2265625,0.22460938,0.22460938,0.20361328,0.15039063,0.15039063,0.15039063,0.15039063,0.12841797,0.111816406,0.09667969,0.099121094,0.29492188,0.2163086,0.2163086,0.08642578,0.2631836,0.2631836,0.25634766,0.25634766,0.30029297,0.30029297,0.3154297,0.30322266,0.30322266,0.2788086,0.2788086,0.2607422,0.2607422,0.1743164,0.1743164,0.13183594,-0.03515625,-0.03515625,-0.12402344,-0.12402344,-0.2133789,-0.2133789,-0.2133789,0.20654297,0.20654297,0.31933594,0.31933594,0.31933594,-0.86035156,-0.86035156,-0.9506836,-0.9506836,0.07128906,0.24072266,-0.7192383,-0.17822266,-0.17822266,-0.18652344,-0.18652344,-0.2241211,-0.23876953,-0.2553711,-0.25,-0.26367188,-0.35791016,-0.35791016,-0.35791016,-0.4165039,-0.4165039,-0.49169922,-0.49169922,-0.51220703,-0.5888672,-0.5888672,-0.5966797,-0.6425781,-0.6425781,-0.6425781,-0.6425781,-0.57470703,-0.57470703,-0.5727539,-0.5410156,-0.3959961,-0.3959961,-0.3959961,-0.3359375,-0.3569336,-0.36621094,-0.36621094,-0.3305664,-0.3305664,-0.35498047,-0.3774414,-0.3774414,-0.22998047,-0.22998047,-0.53027344,-0.53027344,0.06591797,-0.72802734,-0.72802734,0.091308594,0.37109375,0.14013672,-0.12207031,0.17871094,-0.24707031,0.5566406,0.109375,0.109375,0.109375,0.77490234,0.9477539,-0.38330078,-0.38330078,0.0034179688,0.54833984,-0.18457031,-0.087402344,0.78125,-0.48583984,0.80859375,0.80859375,0.38964844,0.3154297,0.3154297,0.3154297,0.37841797,0.3774414,0.3774414,0.38476563,0.37402344,0.3857422,0.3857422,0.41601563,0.41601563,0.41601563,0.39941406,0.39941406,0.40283203,0.4975586,0.4975586,0.3647461,0.3647461,0.35205078,0.35205078,0.3310547,0.3310547,0.3125,0.30566406,0.30566406,0.30566406,0.30566406,0.28173828,0.28173828,0.28173828,0.24511719,0.24511719,0.22998047,0.25439453,0.25439453,0.29003906,0.29003906,0.27490234,0.27490234,0.09082031,0.09082031,0.09082031,0.40625,0.40625,
triangle,0,1,0.15136719,0.15136719,0.15136719,0.24169922,0.24169922,0.24169922,0.20703125,0.20703125,0.1694336,0.16699219,0.16308594,0.17480469,0.16845703,0.16796875,0.16796875,0.17138672,0.17529297,0.1743164,0.1772461,0.17138672,0.17529297,0.1796875,0.1977539,0.1977539,0.1875,0.21679688,0.21044922,0.18359375,0.18359375,0.05078125,0.23730469,0.25439453,0.2133789,0.22509766,0.23730469,0.23876953,0.22265625,0.2319336,0.24951172,0.23242188,0.23242188,0.21728516,0.19628906,0.14404297,0.1743164,0.14794922,0.11425781,0.11425781,0.05029297,0.05029297,0.05029297,0.08544922,0.08544922,0.0078125,0.0078125,-0.07763672,-0.07763672,-0.11279297,-0.11279297,-0.14501953,-0.16259766,-0.19580078,-0.23144531,-0.23144531,-0.20996094,-0.29882813,-0.29882813,-0.31640625,-0.31640625,-0.4243164,-0.4243164,-0.4243164,-0.4375,-0.4033203,-0.36328125,-0.36328125,-0.36328125,-0.41455078,-0.41455078,-0.38720703,-0.38720703,-0.42578125,-0.42578125,-0.48339844,-0.62841797,-0.62841797,-0.6748047,-0.6191406,-0.72802734,-0.72802734,-0.72802734,-0.76123047,-0.76123047,-0.79833984,-0.8027344,-0.8491211,-0.84277344,-0.82128906,-0.85546875,-0.85546875,-0.6660156,-0.6660156,-0.6660156,-0.6772461,-0.6772461,-0.6635742,-0.66796875,-0.66796875,-0.66796875,-0.66796875,-0.66796875,-0.6694336,-0.61865234,-0.5683594,-0.30078125,-0.30078125,-0.30078125,-0.35107422,-0.35107422,-0.16992188,0.2626953,-0.30078125,-0.07763672,-0.07763672,0.42236328,-0.10986328,0.2685547,0.30615234,0.30615234,0.33154297,0.3486328,0.3569336,0.3569336,0.4477539,0.41601563,0.41601563,0.3935547,0.3935547,0.4482422,0.4482422,0.4482422,0.43554688,0.4008789,0.34716797,0.34716797,0.34716797,0.4140625,0.4140625,0.41357422,0.41357422,0.3876953,0.3330078,0.3330078,0.3330078,0.3330078,0.3466797,0.3466797,0.35498047,0.27148438,0.27148438,
circleCw,0,1,0.27392578,0.27392578,0.2709961,0.2709961,0.2709961,0.2709961,0.2709961,0.2861328,0.2861328,0.2861328,0.26611328,0.26611328,0.27685547,0.27685547,0.28808594,0.28222656,0.27783203,0.28564453,0.28466797,0.2915039,0.2915039,0.28515625,0.28515625,0.28515625,0.29296875,0.29296875,0.29052734,0.2783203,0.27685547,0.28173828,0.28027344,0.27734375,0.28466797,0.2705078,0.28466797,0.30517578,0.296875,0.3022461,0.31054688,0.31640625,0.3076172,0.30126953,0.3149414,0.29589844,0.27490234,0.2705078,0.28173828,0.26953125,0.2109375,0.2109375,0.20361328,0.20361328,0.23339844,0.23339844,0.23339844,0.23242188,0.23242188,0.2265625,0.24951172,0.26611328,0.24023438,0.24023438,0.1977539,0.1977539,0.10253906,0.10253906,0.017578125,0.017578125,0.017578125,-0.13867188,-0.13867188,-0.19677734,-0.19677734,-0.32617188,-0.36669922,-0.36621094,-0.4794922,-0.56103516,-0.7089844,-0.7089844,-0.7089844,-0.74072266,-0.74072266,-0.9741211,-0.9741211,-0.9506836,-0.9506836,-0.9506836,-0.81152344,-0.81152344,-0.7583008,-0.7583008,-0.7583008,-0.7709961,-0.8208008,-0.8129883,-0.7441406,-0.77685547,-0.77685547,-0.77685547,-0.5830078,-0.5830078,-0.5605469,-0.4794922,-0.4794922,-0.38183594,-0.38183594,-0.37109375,-0.31689453,-0.14355469,-0.14355469,-0.14355469,-0.061035156,-0.061035156,0.06640625,0.06640625,0.24658203,0.24658203,0.24658203,0.3828125,0.3828125,0.38916016,0.38916016,0.4008789,0.38720703,0.42529297,0.4038086,0.4038086,0.39160156,0.44482422,0.44482422,0.4453125,0.4741211,0.4638672,0.44970703,0.38867188,0.38867188,0.38867188,0.38183594,0.38378906,0.36523438,0.36523438,0.33935547,0.33642578,0.32470703,0.2919922,0.2919922,0.26220703,0.21386719,0.21386719,0.21386719,0.21386719,0.33203125,0.22021484,
circleCcw,0,1,0.123535156,0.123535156,0.123535156,0.16992188,0.16992188,0.16796875,0.15185547,0.15722656,0.15039063,0.14257813,0.1352539,0.1352539,0.13867188,0.14794922,0.15527344,0.14648438,0.16015625,0.1430664,0.1430664,0.14404297,0.14501953,0.22949219,0.22949219,0.22949219,0.08105469,0.09667969,0.07421875,0.14648438,0.14648438,0.13769531,0.13769531,0.14501953,0.14355469,0.14746094,0.1640625,0.1640625,0.18115234,0.18115234,0.24023438,0.15234375,0.15234375,0.1953125,0.21728516,0.17529297,0.19824219,0.18457031,0.18457031,0.17041016,0.17041016,0.31689453,0.1616211,0.1616211,0.1616211,0.11621094,0.11621094,0.09277344,0.053222656,0.016113281,0.016113281,-0.17822266,-0.17822266,-0.17822266,-0.07373047,-0.07373047,-0.38671875,-0.37109375,-0.24804688,-0.34472656,-0.47265625,-0.5830078,-0.5830078,-0.5830078,-0.72265625,-0.72265625,-0.82714844,-0.82714844,-0.9321289,-0.9321289,-0.9614258,-1.0092773,-1.0092773,-0.9121094,-0.9121094,-0.9291992,-0.99365234,-0.99365234,-1.0361328,-1.0361328,-1.0029297,-1.0107422,-1.0107422,-0.88720703,-0.7988281,-0.7871094,-0.7832031,-0.6796875,-0.6796875,-0.6796875,-0.5991211,-0.5805664,-0.42773438,-0.42773438,-0.44189453,-0.44189453,-0.44189453,-0.39013672,-0.36376953,-0.33984375,-0.25097656,-0.17285156,-0.12158203,-0.07519531,0.12402344,0.12402344,0.22802734,0.22802734,0.22802734,0.25976563,0.25976563,0.2626953,0.2626953,0.26660156,0.26660156,0.26660156,0.28173828,0.32910156,0.2919922,0.2919922,0.2919922,0.2680664,0.2680664,0.2475586,0.2475586,0.25341797,0.26220703,0.26220703,0.28076172,0.28076172,0.30615234,0.30615234,0.31347656,0.31347656,0.32373047,0.34033203,0.32958984,0.32763672,0.42382813,0.42382813,0.28857422,0.30322266,0.29248047,0.28808594,0.2939453,0.29052734,0.2705078,
left,0,2,0.25195313,0.25195313,0.22753906,0.22753906,0.22753906,0.2163086,0.2163086,0.21972656,0.22363281,0.23925781,0.23388672,0.23388672,0.23632813,0.23632813,0.23242188,0.23242188,0.23535156,0.23535156,0.23144531,0.2319336,0.2319336,0.22705078,0.22705078,0.23046875,0.22021484,0.21386719,0.2397461,0.2397461,0.23144531,0.23144531,0.23583984,0.23828125,0.2290039,0.2319336,0.2319336,0.24169922,0.24169922,0.23046875,0.26220703,0.26220703,0.26367188,0.26367188,0.25927734,0.25927734,0.2578125,0.2578125,0.2578125,0.27001953,0.27001953,0.10888672,0.09326172,0.09326172,0.015136719,0.015136719,-0.064453125,-0.19824219,-0.19824219,-0.22851563,-0.22851563,-0.21777344,-0.21777344,-0.28955078,-0.37451172,-0.37451172,-0.31884766,-0.31884766,-0.23779297,-0.23779297,-0.23828125,-0.23828125,-0.23828125,-0.15820313,-0.15820313,-0.14160156,-0.14160156,-0.09423828,-0.053710938,-0.053710938,0.016601563,0.08886719,0.055664063,0.055664063,-0.04638672,0.026367188,0.026367188,0.026367188,0.026367188,0.051757813,0.051757813,0.061035156,0.061035156,0.061035156,-0.016113281,-0.016113281,-0.016113281,0.17480469,-0.095703125,0.0546875,0.064941406,0.07861328,0.047851563,0.047851563,0.05517578,0.04248047,0.056640625,0.056640625,0.05078125,
right,0,2,0.19482422,0.19482422,0.19482422,0.19482422,0.19482422,0.171875,0.171875,0.24267578,0.24267578,0.24267578,0.23925781,0.19970703,0.18554688,0.18554688,0.18017578,0.16894531,0.18896484,0.20019531,0.19384766,0.2133789,0.23876953,0.23876953,0.21435547,0.21435547,0.21533203,0.21533203,0.20751953,0.20751953,0.20117188,0.27148438,0.27148438,0.25927734,0.203125,0.22021484,0.22021484,0.22021484,0.20654297,0.20654297,0.20458984,0.19921875,0.1850586,0.1821289,0.1821289,0.17529297,0.1796875,0.18896484,0.18896484,0.18896484,0.19824219,0.19824219,0.17382813,0.16796875,0.14208984,0.14208984,0.12207031,0.08886719,0.041015625,0.041015625,0.041015625,0.05419922,0.03515625,0.034179688,0.03515625,0.021484375,-0.014160156,-0.016113281,-0.022460938,-0.052246094,-0.05029297,-0.05419922,-0.05419922,-0.05419922,-0.0703125,-0.14160156,-0.17041016,-0.17041016,-0.17041016,-0.17041016,-0.059570313,0.07080078,0.07080078,0.07080078,0.07080078,-0.080566406,0.06201172,0.06201172,0.06201172,0.06640625,0.111328125,0.057128906,0.07861328,0.11279297,0.11279297,0.080078125,0.075683594,0.075683594,0.075683594,0.075683594,0.091308594,0.09277344,0.076660156,0.0703125,0.08984375,0.14648438,0.08251953,0.09814453,0.09814453,0.09814453,0.0703125,0.09716797,0.09716797,0.09716797,0.06298828,0.06298828,
up,0,2,0.029296875,0.029296875,0.029296875,0.029296875,0.029296875,0.028320313,0.041503906,0.043945313,0.047851563,0.049316406,0.040039063,0.04248047,0.045898438,0.03955078,0.029785156,0.03125,0.03125,0.034179688,0.032714844,0.027832031,0.027832031,0.03564453,0.03564453,0.03564453,0.03564453,0.03564453,0.03125,0.033203125,0.028808594,0.032714844,0.025390625,0.02734375,0.02734375,0.013183594,0.013183594,0.00390625,0.013671875,0.013671875,4.8828125E-4,4.8828125E-4,0.022949219,0.063964844,0.063964844,0.10839844,0.051757813,-0.1015625,-0.1015625,-0.1015625,-0.13720703,-0.13720703,-0.23779297,-0.23779297,-0.30664063,-0.27148438,-0.25439453,-0.2211914,-0.14501953,0.26171875,0.26171875,0.26171875,0.5019531,0.5019531,0.6411133,0.6411133,0.6748047,0.6748047,0.6904297,0.7246094,0.8466797,0.875,0.875,0.95214844,1.0229492,1.0405273,1.0458984,1.0458984,1.0849609,1.0849609,1.0942383,1.0942383,1.0942383,1.0288086,1.0288086,1.0639648,1.0581055,1.0375977,1.0224609,1.0224609,1.0737305,1.0737305,1.0454102,1.0454102,1.0454102,
down,0,2,0.2548828,0.14648438,0.14648438,0.14648438,0.14648438,0.14648438,0.3876953,0.21484375,0.23535156,0.23535156,0.23535156,0.24902344,0.24511719,0.24853516,0.24316406,0.24316406,0.2529297,0.2529297,0.25927734,0.25927734,0.23291016,0.23242188,0.23925781,0.24511719,0.23291016,0.2368164,0.2368164,0.25048828,0.22460938,0.31347656,0.26464844,0.24902344,0.2397461,0.2397461,0.25634766,0.24658203,0.24658203,0.2446289,0.2446289,0.27197266,0.27197266,0.27197266,0.20605469,0.20605469,0.29101563,0.29101563,0.20507813,0.20507813,0.20507813,-0.040039063,-0.040039063,-0.4008789,-0.4008789,-0.46777344,-0.37548828,-0.37548828,-0.7285156,-0.7285156,-1.1142578,-1.1142578,-1.0996094,-1.2021484,-1.2021484,-1.4575195,-1.4575195,-1.3999023,-1.3999023,-1.3999023,-1.0532227,-1.0532227,-0.99072266,-0.99072266,-0.86035156,-0.86035156,-0.84814453,-0.80566406,-0.84814453,-0.8618164,-0.8989258,-0.8989258,-0.8828125,-0.87402344,-0.93310547,-0.9375,-0.9404297,-0.9404297,-0.9404297,-0.96240234,-0.98779297,-0.9609375,-0.9609375,-0.90722656,-0.90722656,-0.9160156,-0.8989258,-0.8989258,-0.9038086,-0.9038086,-0.9511719,-0.9511719,-0.9511719,-0.93066406,-0.90478516,-0.8876953,-0.8876953,-0.8876953,-0.90722656,-0.90722656,-0.94189453,-0.92529297,-0.8388672,-0.8388672,-0.8388672,
square,0,2,0.34326172,0.34326172,0.34326172,0.33007813,0.33007813,0.33007813,0.33007813,0.33154297,0.33154297,0.2602539,0.2602539,0.2602539,0.30273438,0.30029297,0.2861328,0.29882813,0.30908203,0.3305664,0.3305664,0.30029297,0.29589844,0.31298828,0.28173828,0.28173828,0.26611328,0.26611328,0.28564453,0.28564453,0.28564453,0.2548828,0.2548828,0.26123047,0.2993164,0.27441406,0.27441406,0.27441406,0.30566406,0.30566406,0.3408203,0.3408203,0.3408203,0.30517578,0.30517578,0.31591797,0.31591797,0.2553711,0.1977539,0.14941406,0.0073242188,0.0073242188,-0.021484375,-0.030273438,-0.03955078,-0.083496094,-0.071777344,-0.15722656,-0.15722656,-0.15722656,-0.15722656,-0.12451172,-0.12597656,-0.21826172,-0.21826172,-0.21826172,-0.25048828,-0.25048828,-0.31103516,-0.3232422,-0.3232422,-0.33398438,-0.33398438,-0.3076172,-0.32470703,-0.27148438,-0.3256836,-0.3256836,-0.43847656,-0.43847656,-0.43847656,-0.44873047,-0.4189453,-0.453125,-0.48486328,-0.59765625,-0.7138672,-0.77441406,-0.80126953,-0.80126953,-0.76904297,-0.7402344,-0.8515625,-0.8515625,-0.8515625,-0.7963867,-0.7583008,-0.7607422,-0.75683594,-0.71484375,-0.71484375,-0.71484375,-0.7060547,-0.6928711,-0.67626953,-0.67626953,-0.70703125,-0.6977539,-0.6464844,-0.63671875,-0.5654297,-0.63623047,-0.63623047,-0.57373047,-0.55566406,-0.6166992,-0.64501953,-0.64501953,-0.6386719,-0.6386719,-0.58447266,-0.5180664,-0.5180664,-0.63623047,-0.107421875,-0.7602539,0.21972656,0.3071289,-0.32763672,-0.32763672,0.1616211,0.1616211,0.20263672,0.25097656,0.25097656,0.27197266,0.27197266,0.28857422,0.25927734,0.25927734,0.2841797,0.2841797,0.21875,0.21875,0.21875,0.21289063,0.22021484,0.20996094,0.22802734,0.25976563,0.25976563,0.25976563,0.29736328,0.3178711,0.3466797,0.35107422,0.37402344,0.37402344,0.37402344,0.41308594,0.41308594,0.43554688,0.40966797,0.40966797,0.40966797,0.40966797,0.43115234,0.43115234,0.390625,0.390625,0.390625,0.39257813,0.39111328,0.36914063,0.3623047,0.36035156,0.35058594,0.32373047,0.32373047,0.32226563,0.17773438,0.17773438,0.36279297,0.33251953,0.32128906,0.32080078,0.32080078,0.31396484,0.3173828,0.31201172,0.30517578,0.30517578,
triangle,0,2,0.24658203,0.24658203,0.24658203,0.25048828,0.25048828,0.25976563,0.25976563,0.1899414,0.21972656,0.21972656,0.26171875,0.26171875,0.25878906,0.25878906,0.25878906,0.24560547,0.24560547,0.24267578,0.26513672,0.25634766,0.25634766,0.25634766,0.2548828,0.2548828,0.25585938,0.25585938,0.25878906,0.25878906,0.21582031,0.21582031,0.21582031,0.12890625,0.019042969,0.19726563,0.14892578,0.14892578,0.09667969,0.09667969,0.088378906,0.024902344,0.04296875,-0.080078125,-0.080078125,-0.41259766,-0.41259766,-0.41259766,-0.34375,-0.34375,-0.20800781,-0.31201172,-0.3852539,-0.58935547,-0.58935547,-0.63378906,-0.63378906,-0.546875,-0.61865234,-0.4584961,-0.4584961,-0.4584961,-0.42822266,-0.42822266,-0.46777344,-0.46777344,-0.46777344,-0.48779297,-0.48779297,-0.5703125,-0.5703125,-0.55859375,-0.55859375,-0.55859375,-0.6694336,-0.69970703,-0.87646484,-0.87646484,-0.98535156,-0.98535156,-0.98535156,-1.0219727,-1.0229492,-0.9511719,-0.9511719,-0.9511719,-0.9511719,-0.9511719,-0.89941406,-0.8520508,-0.7416992,-0.7416992,-0.7416992,-0.90283203,-0.90283203,-0.8305664,-0.8305664,-0.8540039,-0.8540039,-0.8540039,-0.8725586,-0.8442383,-0.74365234,-0.74365234,-0.6308594,-0.46289063,-0.46289063,-0.5126953,-0.5126953,-0.16503906,-0.16503906,-0.16503906,-0.045898438,0.0625,0.09765625,0.17333984,0.32373047,0.32373047,0.36376953,0.39160156,0.41064453,0.43896484,0.44873047,0.43310547,0.48095703,0.48095703,0.43701172,0.43701172,0.41992188,0.43554688,0.43554688,0.42041016,0.4272461,0.39746094,0.39746094,0.3876953,0.3876953,0.3876953,0.38623047,0.38623047,0.41455078,0.41455078,0.41455078,
circleCw,0,2,0.21923828,0.21923828,0.21923828,0.2290039,0.2290039,0.21240234,0.21240234,0.22558594,0.22607422,0.22021484,0.22216797,0.22216797,0.2290039,0.2290039,0.22802734,0.22802734,0.22851563,0.22802734,0.23779297,0.23095703,0.23095703,0.23095703,0.23339844,0.23046875,0.23828125,0.23828125,0.23632813,0.23632813,0.23632813,0.23046875,0.22753906,0.23730469,0.23730469,0.24853516,0.24609375,0.23925781,0.2265625,0.23144531,0.23144531,0.23144531,0.23144531,0.21484375,0.25,0.22802734,0.20751953,0.2475586,0.2475586,0.2475586,0.25097656,0.22265625,0.2421875,0.2421875,0.22363281,0.2446289,0.2446289,0.2705078,0.2705078,0.26416016,0.28857422,0.30029297,0.27392578,0.24511719,0.2163086,0.35058594,0.31689453,0.31982422,0.27734375,0.31152344,0.26708984,0.26708984,0.26708984,0.0390625,0.0390625,0.0390625,0.0390625,0.0390625,0.0390625,0.087890625,0.087890625,0.087890625,0.07714844,0.032226563,-0.001953125,-0.0043945313,-0.0043945313,-0.0043945313,-0.1430664,-0.6411133,-0.6411133,-0.6411133,-0.6411133,-0.6411133,-0.70214844,-0.70751953,-0.70751953,-0.70751953,-0.70751953,-1.2631836,-1.2631836,-1.1557617,-1.3583984,-1.3583984,-1.3583984,-1.1894531,-1.1894531,-0.7524414,-0.7524414,-0.7524414,-0.7524414,-0.7524414,-0.6767578,-0.6767578,-0.6767578,-0.6767578,-0.6767578,-0.45117188,-0.45117188,-0.45117188,-0.40771484,-0.3774414,-0.33203125,-0.28466797,-0.14208984,-0.14208984,0.3798828,0.3798828,0.3798828,0.3798828,0.41455078,0.48779297,0.48779297,0.48779297,0.48779297,0.5175781,0.5175781,0.4375,0.4375,0.4375,0.41015625,0.41015625,0.39648438,0.34521484,0.34521484,0.32617188,0.32617188,0.31640625,0.31640625,0.33789063,0.33789063,0.33789063,0.30908203,0.30908203,0.29882813,0.30664063,
circleCcw,0,2,0.19140625,0.19140625,0.19140625,0.19482422,0.19482422,0.1953125,0.1953125,0.21875,0.0390625,0.0390625,0.18701172,0.18701172,0.19628906,0.19628906,0.18945313,0.18945313,0.18945313,0.19238281,0.19238281,0.2109375,0.18310547,0.18310547,0.19042969,0.20507813,0.20507813,0.1977539,0.19091797,0.1953125,0.20654297,0.19042969,0.19042969,0.1977539,0.115722656,0.12060547,0.24853516,0.21044922,0.24658203,0.2783203,0.25732422,0.23046875,0.21679688,0.25195313,0.25195313,0.23876953,0.23730469,0.24365234,0.21533203,0.25146484,0.25146484,0.25146484,0.15771484,0.15771484,0.14550781,0.14550781,0.14550781,0.095214844,0.095214844,0.068847656,0.022949219,-0.060058594,-0.060058594,-0.060058594,-0.24316406,-0.24316406,-0.53125,-0.53125,-0.53125,-0.39794922,-0.53027344,-0.58496094,-0.58496094,-0.69628906,-0.69628906,-0.31933594,-0.31933594,-0.40283203,-0.40283203,-0.40283203,-0.50146484,-1.2104492,-1.2104492,-1.1982422,-1.2250977,-1.1435547,-1.1435547,-1.1435547,-1.0825195,-1.0825195,-1.0893555,-1.0893555,-0.74853516,-0.74853516,-0.74853516,-0.73828125,-0.6904297,-0.72021484,-0.72021484,-0.5341797,-0.5341797,-0.54833984,-0.45117188,-0.45117188,-0.36132813,-0.23876953,-0.37646484,-0.24853516,-0.16113281,-0.10205078,-0.10205078,-0.095214844,-0.088378906,-0.08251953,0.05810547,0.05810547,0.14794922,0.14794922,0.19677734,0.19677734,0.1694336,0.16357422,0.20947266,0.2265625,0.2265625,0.23876953,0.23876953,0.23486328,0.18359375,0.18359375,0.1796875,0.52001953,0.52001953,0.52001953,0.52001953,0.24707031,-0.15576172,0.119140625,0.119140625,0.119140625,0.14208984,0.14208984,0.14794922,0.14794922,0.15820313,0.20654297,0.20654297,0.23388672,0.23388672,0.22802734,0.2626953,0.2626953,0.2626953,0.2626953,0.25683594,
left,0,3,0.2685547,0.2685547,0.115234375,0.115234375,0.115234375,0.115234375,0.115234375,0.115234375,0.5449219,0.5449219,0.25195313,0.25195313,0.25195313,0.25878906,0.25878906,0.25878906,0.25878906,0.25732422,0.25732422,0.25732422,0.265625,0.265625,0.25439453,0.25439453,0.25732422,0.25732422,0.25732422,0.24658203,0.23925781,0.25634766,0.25634766,0.3642578,0.3642578,0.3642578,0.2841797,0.2841797,0.27490234,0.27490234,0.27490234,0.26123047,0.26123047,0.27148438,0.27148438,0.25585938,0.29541016,0.29541016,0.23876953,0.23876953,0.16015625,0.16015625,-0.0068359375,-0.0068359375,-0.0068359375,0.06542969,-0.0073242188,-0.10595703,-0.15771484,-0.15576172,-0.18261719,-0.18261719,-0.27441406,-0.33251953,-0.12841797,-0.12841797,-0.12841797,-0.25683594,-0.1484375,-0.1484375,-0.1484375,-0.04736328,-0.04736328,-0.04736328,-0.028320313,-0.028320313,0.020996094,0.020996094,0.020996094,0.057128906,0.061035156,0.06591797,0.045898438,0.15136719,0.15136719,0.15136719,0.040527344,0.040527344,0.08886719,0.08886719,0.100097656,0.100097656,0.22509766,0.22509766,0.22509766,
right,0,3,0.19238281,0.19238281,0.18798828,0.18798828,0.18261719,0.18261719,0.18359375,0.17285156,0.17285156,0.19042969,0.18164063,0.1694336,0.18359375,0.18359375,0.18115234,0.18115234,0.17333984,0.17333984,0.18798828,0.18359375,0.17041016,0.18847656,0.17236328,0.17041016,0.1694336,0.17333984,0.17089844,0.16796875,0.16503906,0.16503906,0.16503906,0.16601563,0.15722656,0.14111328,0.1328125,0.067871094,0.067871094,0.067871094,0.072265625,0.02734375,0.015625,-0.012207031,-0.033203125,-0.019042969,-0.019042969,-0.08300781,-0.11621094,-0.14550781,-0.20117188,-0.18359375,-0.18359375,-0.18359375,-0.30859375,-0.30859375,-0.22314453,-0.22314453,-0.19189453,-0.19189453,-0.19189453,-0.16113281,-0.16113281,-0.140625,0.0,0.0,0.16259766,0.16259766,0.08642578,0.08642578,0.15917969,0.21826172,0.21826172,0.18359375,0.18359375,0.16113281,0.16113281,0.19140625,0.13476563,0.13476563,0.12402344,0.110839844,0.12597656,0.12597656,0.09375,0.075683594,0.078125,0.001953125,0.001953125,0.037109375,0.12646484,0.12646484,0.16015625,0.16015625,0.16455078,0.16455078,0.16455078,0.14990234,0.14990234,0.1303711,0.1303711,
up,0,3,0.09863281,0.09863281,0.14257813,0.14257813,0.14257813,0.12646484,0.095703125,0.063964844,0.034179688,0.045410156,-0.017578125,0.10546875,-0.01953125,0.027832031,-4.8828125E-4,0.10058594,0.080078125,0.068359375,0.06738281,0.064453125,0.072753906,0.08691406,0.09863281,0.09863281,0.09863281,0.08496094,0.07128906,0.056152344,0.06347656,0.083496094,0.083496094,0.07470703,0.07470703,0.07470703,0.07470703,0.07470703,0.07470703,0.06982422,0.06982422,0.06982422,0.28955078,0.28955078,-0.012207031,0.0703125,0.10986328,0.020507813,-0.08691406,-0.09082031,-0.106933594,-0.091308594,-0.10595703,-0.095703125,-0.13378906,-0.08203125,-0.037597656,0.11621094,0.11621094,0.57128906,0.57128906,0.57128906,0.57128906,0.64697266,0.5961914,0.81396484,0.81396484,0.81396484,0.81396484,0.8017578,0.97802734,0.97802734,0.97802734,0.97802734,0.97265625,1.0566406,1.0566406,1.0566406,1.0375977,1.0375977,1.0375977,1.0385742,1.0244141,1.0356445,1.0356445,1.0410156,1.0356445,1.0288086,1.0014648,1.0014648,
down,0,3,0.1796875,0.1796875,0.1796875,0.1796875,0.1796875,0.18554688,0.18554688,0.13330078,0.111816406,0.10888672,0.123535156,0.123535156,0.1484375,-0.0107421875,-0.07763672,0.14697266,0.14697266,0.11279297,0.11279297,0.13671875,0.13671875,0.13671875,0.13134766,0.13134766,0.12841797,0.12841797,0.1538086,0.1538086,0.15136719,0.13330078,0.13330078,0.13720703,0.15820313,0.1616211,0.1616211,0.18261719,0.24365234,0.0625,0.17333984,0.23046875,0.22802734,0.16552734,-0.00390625,-0.00390625,-0.00390625,-0.18408203,-0.18408203,-0.28271484,-0.43115234,-0.43115234,-0.6376953,-0.6376953,-1.1279297,-1.1279297,-1.1279297,-1.4213867,-1.4213867,-1.6279297,-1.8432617,-1.7089844,-1.7089844,-1.5908203,-1.6616211,-1.6323242,-1.4296875,-1.2714844,-1.2714844,-0.9555664,-0.9555664,-0.82177734,-0.7763672,-0.6953125,-0.6953125,-0.6933594,-0.7729492,-0.7729492,-0.8046875,-0.8955078,-0.98583984,-0.9897461,-1.0205078,-1.0517578,-1.0517578,-1.0595703,-1.0444336,-1.0253906,-0.93066406,-0.93066406,-0.93066406,-0.93066406,-0.98535156,-0.98535156,-0.98535156,-0.9350586,-0.9350586,-0.9897461,-0.95996094,
square,0,3,0.33154297,0.33154297,0.33203125,0.33203125,0.31689453,0.31689453,0.33740234,0.3935547,0.2788086,0.2788086,0.34960938,0.33935547,0.33984375,0.33544922,0.3461914,0.3461914,0.33984375,0.3305664,0.3383789,0.34228516,0.35302734,0.3466797,0.34472656,0.36035156,0.34570313,0.34570313,0.35351563,0.35351563,0.35058594,0.35253906,0.35205078,0.38720703,0.38720703,0.28222656,0.28173828,0.37695313,0.37695313,0.37695313,0.37304688,0.34765625,0.35351563,0.33496094,0.3310547,0.3310547,0.3310547,0.3076172,0.31396484,0.26367188,0.26367188,0.26367188,0.24707031,0.24707031,0.25927734,0.25927734,0.26611328,0.28173828,0.28173828,0.31933594,0.31933594,0.32080078,0.32080078,0.32080078,0.33496094,0.33496094,0.29345703,0.29345703,0.122558594,0.122558594,0.122558594,-0.0034179688,0.22802734,0.0073242188,0.0073242188,0.018066406,0.018066406,-0.057128906,-0.009277344,-0.009277344,-0.048339844,-0.048339844,-0.12841797,-0.27001953,-0.064941406,-0.27978516,-0.27978516,-0.34277344,-0.3203125,-0.32861328,-0.32861328,-0.32861328,-0.36376953,-0.36376953,-0.34326172,-0.34326172,-0.34326172,-0.38183594,-0.38183594,-0.44384766,-0.44384766,-0.4897461,-0.57470703,-0.57470703,-0.6489258,-0.7060547,-0.75878906,-0.7104492,-0.7104492,-0.69921875,-0.77685547,-0.77685547,-0.8027344,-0.6948242,-0.6948242,-0.6948242,-0.73779297,-0.82666016,-0.7109375,-0.7109375,-0.7133789,-0.7133789,-0.7133789,-0.70410156,-0.70410156,-0.6254883,-0.6020508,-0.6660156,-0.6010742,-0.6010742,-0.67333984,-0.67333984,-0.6791992,-0.6791992,-0.5776367,-0.5776367,-0.53466797,-0.4951172,-0.26953125,-0.50341797,-0.50341797,-0.31933594,-0.31933594,-0.6323242,-0.0063476563,-0.0063476563,-0.0063476563,0.025390625,0.09375,0.17285156,0.17285156,0.1665039,0.1665039,0.20361328,0.20751953,0.20751953,0.21875,0.22753906,0.22705078,0.22705078,0.24951172,0.27978516,0.27978516,0.26123047,0.33398438,0.19628906,0.17333984,0.38623047,0.38623047,0.38623047,0.36865234,0.36865234,0.36865234,0.38183594,0.42285156,0.44335938,0.41992188,0.41992188,0.41992188,0.41992188,0.3564453,0.3564453,0.41210938,0.41210938,0.41210938,0.41210938,0.41210938,0.41357422,0.39697266,0.4194336,0.4194336,0.37548828,0.37548828,0.5786133,0.3413086,0.3413086,0.375,0.375,0.375,0.3803711,0.36865234,0.32226563,0.32226563,0.34033203,0.3227539,0.3227539,
triangle,0,3,0.27490234,0.27490234,0.28076172,0.28076172,0.28076172,0.28076172,0.28076172,0.28173828,0.28173828,0.2758789,0.2758789,0.2758789,0.2685547,0.2685547,0.27294922,0.2709961,0.2709961,0.26904297,0.26904297,0.2758789,0.2607422,0.27734375,0.27734375,0.27978516,0.27392578,0.27539063,0.31591797,0.13720703,0.27490234,0.27490234,0.27490234,0.27441406,0.2788086,0.2788086,0.2788086,0.2788086,0.28076172,0.2763672,0.27148438,0.26416016,0.2084961,0.2084961,0.2084961,0.17773438,0.15429688,0.12060547,0.10205078,0.1381836,0.12158203,0.12158203,0.04638672,-0.0078125,-0.040527344,-0.075683594,-0.10253906,-0.1430664,-0.15722656,-0.19677734,-0.19677734,-0.16113281,-0.16210938,-0.16894531,-0.09423828,-0.09423828,-0.1694336,-0.1694336,-0.20410156,-0.2109375,-0.2265625,-0.2265625,-0.2163086,-0.20410156,-0.20410156,-0.7104492,-0.7104492,-0.7104492,0.05126953,0.1977539,-0.39746094,-0.71240234,-0.57128906,-0.64697266,-0.56152344,-0.7607422,-0.79589844,-0.7607422,-0.9482422,-0.9482422,-0.9824219,-1.019043,-1.0097656,-1.0097656,-0.81152344,-0.81152344,-0.81152344,-0.81152344,-0.81152344,-0.73339844,-0.74658203,-0.74658203,-0.7216797,-0.7216797,-0.6879883,-0.6879883,-0.6743164,-0.6743164,-0.6743164,-0.68652344,-0.68652344,-0.69091797,-0.68310547,-0.6484375,-0.6484375,-0.57177734,-0.57177734,-0.57177734,-0.19140625,-0.36572266,-0.36572266,0.4477539,0.4477539,0.6147461,0.095214844,0.07128906,0.2133789,0.2133789,0.26220703,0.3461914,0.40966797,0.4194336,0.421875,0.421875,0.421875,0.45361328,0.45361328,0.4794922,0.4794922,0.4794922,0.48095703,0.51904297,0.51904297,0.51904297,0.47851563,0.36865234,0.36865234,0.31640625,0.31640625,0.3388672,0.35888672,0.3095703,0.3095703,0.37451172,0.37451172,0.37451172,0.29248047,0.29248047,
circleCw,0,3,0.33984375,0.31347656,0.31347656,0.31347656,0.17919922,0.17919922,0.17919922,0.31445313,0.31640625,0.31445313,0.32177734,0.33203125,0.33203125,0.33203125,0.34472656,0.30517578,0.25146484,0.31298828,0.35742188,0.33740234,0.34326172,0.32373047,0.30419922,0.30419922,0.2993164,0.2993164,0.3618164,0.3618164,0.24023438,0.2680664,0.2685547,0.28564453,0.3071289,0.30517578,0.33007813,0.33007813,0.2998047,0.31445313,0.34277344,0.34277344,0.34277344,0.25683594,0.17529297,0.17285156,0.17285156,0.16552734,0.16552734,0.18847656,0.19091797,0.18359375,0.17138672,0.15917969,0.20654297,0.20654297,0.20654297,0.22509766,0.23925781,0.22363281,0.1796875,0.18310547,0.16699219,0.16699219,0.13427734,0.13427734,0.106933594,0.106933594,0.106933594,-0.009277344,-0.009277344,-0.064453125,-0.14355469,-0.56884766,-0.56884766,-0.56884766,-0.40673828,-0.40673828,-0.6459961,-0.76660156,-0.7602539,-0.7602539,-0.8989258,-0.96484375,-0.96484375,-0.99121094,-0.99121094,-0.99121094,-0.94677734,-0.94677734,-0.9135742,-0.92041016,-0.95214844,-0.8432617,-0.8432617,-0.6845703,-0.6845703,-0.7314453,-0.7314453,-0.7314453,-0.5834961,-0.5834961,-0.4892578,-0.4248047,-0.34472656,-0.34472656,-0.34472656,-0.07714844,-0.07714844,-0.0014648438,-0.0014648438,0.087890625,0.087890625,0.13916016,0.18701172,0.25439453,0.28564453,0.328125,0.328125,0.43359375,0.43359375,0.4038086,0.38427734,0.41308594,0.40771484,0.40771484,0.43847656,0.43847656,0.46484375,0.48876953,0.4243164,0.38232422,0.37646484,0.3803711,0.3803711,0.37939453,0.37939453,0.37890625,0.37890625,0.3701172,0.3227539,0.3227539,0.3046875,0.3046875,
circleCcw,0,3,0.115722656,0.115722656,0.115722656,0.11328125,0.11328125,0.10253906,0.10253906,0.10253906,0.111328125,0.111328125,0.09814453,0.099609375,0.09716797,0.10595703,0.11279297,0.11279297,0.11279297,0.10839844,0.109375,0.1015625,0.096191406,0.103515625,0.107421875,0.10449219,0.111816406,0.111816406,0.111816406,0.106933594,0.107421875,0.10986328,0.10986328,0.10449219,0.106933594,0.107910156,0.09765625,0.111816406,0.111816406,0.111816406,0.091796875,0.071777344,0.014160156,0.095703125,0.095703125,0.110839844,0.10546875,0.10546875,0.1303711,0.1303711,0.14111328,0.14111328,0.16503906,0.15820313,0.18847656,0.1821289,0.1821289,0.1508789,0.1508789,0.14160156,0.12939453,0.115234375,0.115234375,0.092285156,0.14697266,0.14697266,0.061523438,0.061523438,0.061523438,0.0546875,0.0546875,-0.001953125,-0.026855469,-0.026855469,-0.05810547,-0.12890625,-0.17871094,-0.14648438,-0.12109375,-0.3486328,-0.3486328,-0.34960938,-0.34960938,-0.3642578,-0.48339844,-0.4794922,-0.8510742,-0.8510742,-0.31640625,-0.9501953,-0.9350586,-0.9814453,-1.0390625,-0.9941406,-0.9790039,-1.1352539,-1.1352539,-1.175293,-1.175293,-1.1479492,-1.0878906,-1.0878906,-1.0551758,-1.0629883,-0.9980469,-0.9980469,-0.9951172,-0.9555664,-0.90478516,-0.81689453,-0.81689453,-0.77783203,-0.73046875,-0.6621094,-0.6074219,-0.6074219,-0.55322266,-0.50683594,-0.50683594,-0.47216797,-0.40478516,-0.4140625,-0.4140625,-0.20751953,-0.20751953,-0.20751953,-0.23730469,-0.23730469,0.0034179688,0.0034179688,-0.041992188,0.021972656,0.021972656,0.072265625,0.103027344,0.171875,0.171875,0.171875,0.21435547,0.21435547,0.26953125,0.26953125,0.25341797,0.25341797,0.25341797,0.29833984,0.26367188,0.2841797,0.24121094,0.11621094,0.1459961,0.49658203,-0.049804688,0.32177734,0.25976563,0.24609375,0.23779297,0.21386719,0.22460938,0.24853516,0.23730469,0.23730469,0.24804688,0.2397461,0.23583984,0.23583984,0.2368164,0.2368164,0.25048828,0.25048828,0.25048828,0.2631836,0.2631836,
left,0,4,0.3046875,0.3046875,0.3046875,0.3046875,0.3017578,0.30322266,0.30322266,0.2939453,0.29638672,0.2939453,0.2939453,0.2993164,0.3022461,0.3095703,0.2939453,0.3125,0.3125,0.3125,0.25585938,0.25585938,0.25585938,0.3623047,0.30615234,0.30615234,0.29003906,0.29003906,0.31591797,0.31591797,0.32226563,0.32226563,0.30273438,0.29345703,0.2939453,0.30322266,0.2944336,0.30126953,0.30126953,0.30126953,0.30371094,0.30371094,0.33984375,0.33984375,0.36523438,0.36621094,0.36621094,0.36621094,0.36621094,0.33642578,0.33642578,0.36083984,0.2626953,0.2626953,0.21777344,0.21777344,0.080078125,0.080078125,0.080078125,0.091796875,-0.041015625,-0.041015625,-0.047851563,0.10498047,0.10498047,0.10498047,-0.15673828,-0.23291016,-0.2866211,-0.2866211,-0.21435547,-0.1459961,-0.21142578,-0.13183594,-0.13183594,-0.10498047,-0.052246094,-0.052246094,-0.115722656,-0.115722656,-0.048339844,-0.048339844,0.017089844,0.017089844,0.017089844,0.037109375,0.037109375,-0.0625,-0.0625,-0.19580078,-0.19580078,0.34033203,0.107910156,0.07324219,0.13671875,0.13671875,0.13671875,0.12597656,0.08251953,0.078125,0.078125,0.078125,0.078125,0.078125,
right,0,4,-0.001953125,-0.001953125,-0.001953125,0.3955078,0.3955078,0.27734375,0.27734375,0.27929688,0.27929688,0.27929688,0.27734375,0.27734375,0.28222656,0.28173828,0.27539063,0.27929688,0.27929688,0.27783203,0.27783203,0.27734375,0.28320313,0.27539063,0.27441406,0.29736328,0.29736328,0.29736328,0.43798828,0.43798828,0.43798828,0.68847656,0.68847656,0.25390625,0.25390625,0.25390625,0.19140625,0.19140625,0.19873047,0.22363281,0.17285156,0.036132813,0.036132813,-0.02734375,-0.02734375,-0.080078125,-0.12451172,-0.1538086,-0.20947266,-0.20947266,-0.28125,-0.23535156,-0.3774414,-0.3774414,-0.2993164,-0.21582031,-0.21582031,-0.119628906,-0.119628906,0.140625,0.140625,0.140625,0.107421875,0.107421875,0.18164063,0.18164063,0.22070313,0.13378906,0.13378906,0.18945313,0.18945313,0.16015625,0.16015625,0.14257813,0.14257813,0.14257813,0.11767578,0.11767578,0.104003906,0.104003906,0.11425781,0.11425781,0.11425781,0.2709961,0.2709961,0.2709961,0.2709961,0.2709961,0.08935547,0.08935547,0.080078125,0.080078125,0.11767578,0.076171875,0.076171875,0.09375,0.075683594,0.099121094,0.099121094,0.099121094,0.083496094,0.083496094,
up,0,4,0.10498047,0.10498047,0.09472656,0.09472656,0.09472656,0.11279297,0.11230469,0.10839844,0.122558594,0.11816406,0.118652344,0.09863281,0.15966797,0.15966797,0.107910156,0.107910156,0.107910156,0.096191406,0.111328125,0.104003906,0.104003906,0.107910156,0.11279297,0.12207031,0.103515625,0.09667969,0.08642578,0.08642578,0.08642578,0.10498047,0.10498047,0.087402344,0.099609375,0.083984375,0.083984375,0.0859375,0.036132813,0.18896484,0.18310547,-0.171875,0.42041016,0.10595703,0.10595703,0.18408203,0.18408203,0.08984375,0.08984375,0.10253906,0.018554688,-0.033691406,-0.05419922,-0.096191406,-0.13183594,-0.12451172,-0.14990234,-0.03125,-0.03125,0.1796875,0.1796875,0.25439453,0.38476563,0.4663086,0.63378906,0.63378906,0.68603516,0.68603516,0.87402344,0.87402344,0.87402344,0.8833008,0.93652344,1.0405273,1.0405273,1.0302734,1.0805664,1.0805664,1.0688477,1.0688477,1.0717773,1.0717773,1.074707,1.0717773,1.0717773,1.0717773,1.0717773,1.0776367,1.0776367,1.0776367,1.0424805,1.0366211,1.0712891,1.0722656,1.0556641,1.0566406,1.0566406,1.0473633,1.0473633,1.0493164,1.0493164,1.0493164,1.0405273,1.0405273,1.0380859,
down,0,4,0.23291016,0.23291016,0.23291016,0.26367188,0.26367188,0.2475586,0.2475586,0.24707031,0.2397461,0.24267578,0.23876953,0.23876953,0.23046875,0.17480469,0.22070313,0.13427734,0.13427734,0.23925781,0.75341797,-0.16601563,-0.37109375,-0.37109375,0.2939453,0.26708984,0.2397461,0.2397461,0.2475586,0.2475586,0.2475586,0.23535156,0.23535156,0.24560547,0.24560547,0.25097656,0.25439453,0.25439453,0.25439453,0.25439453,0.2475586,0.2524414,0.27246094,0.27246094,0.27246094,0.28076172,0.22509766,0.052246094,0.052246094,0.052246094,-0.12792969,-0.26367188,-0.33154297,-0.33154297,-0.7495117,-0.7495117,-0.7495117,-1.1010742,-1.1010742,-1.3310547,-1.5493164,-1.7119141,-1.7119141,-1.7119141,-1.7119141,-1.7119141,-1.5737305,-1.5737305,-1.5737305,-1.199707,-1.199707,-0.79248047,-0.79248047,-0.70166016,-0.69677734,-0.69677734,-0.7993164,-0.7993164,-0.8754883,-0.921875,-0.94091797,-0.94091797,-0.94091797,-0.9433594,-0.9433594,-0.9379883,-0.9379883,-0.9379883,-1.0073242,-1.0073242,-0.9711914,-0.9682617,-0.9902344,-0.9902344,-0.9902344,-0.93603516,-0.93603516,-0.93359375,-0.93359375,-0.9238281,-0.9238281,-0.9238281,-0.9033203,-0.90625,
square,0,4,0.33447266,0.33447266,0.33447266,0.3623047,0.3623047,0.3701172,0.3701172,0.35009766,0.37890625,0.38916016,0.16894531,0.16894531,0.35888672,0.35888672,0.35888672,0.35058594,0.359375,0.35839844,0.34765625,0.34716797,0.35498047,0.35742188,0.34179688,0.34179688,0.3305664,0.3305664,0.29882813,0.29882813,0.29882813,0.28955078,0.2939453,0.2578125,0.2578125,0.21923828,0.23632813,0.25048828,0.27929688,0.27929688,0.29541016,0.29541016,0.29541016,0.26611328,0.26611328,0.26513672,0.26513672,0.29052734,0.29052734,0.29052734,0.29052734,0.29052734,0.2890625,0.2890625,0.2890625,0.2890625,0.2890625,0.2890625,0.21972656,0.14550781,0.14550781,0.14550781,-0.00390625,-0.00390625,-0.00390625,0.07373047,0.07373047,0.076660156,0.22802734,0.22802734,0.22802734,0.22802734,-0.38476563,-0.33984375,-0.33984375,-0.33984375,-0.33984375,-0.10595703,-0.10595703,-0.48876953,-0.48876953,0.1430664,-0.14013672,-0.6064453,-0.6064453,-0.6064453,-0.6064453,-1.0117188,-0.5283203,-0.5283203,-0.5283203,-0.5283203,-0.5683594,-0.5683594,-0.5683594,-0.5683594,-0.5683594,-0.57373047,-0.61083984,-0.5541992,-0.5541992,-0.48291016,-0.5600586,-0.5600586,-0.5541992,-0.4892578,-0.40283203,-0.37353516,-0.33496094,-0.32080078,-0.27392578,-0.30566406,-0.3720703,-0.37890625,-0.37890625,-0.37890625,-0.37890625,-0.43017578,-0.33447266,-0.3232422,-0.25683594,-0.20947266,-0.14355469,-0.14355469,-0.07128906,0.045410156,0.11376953,0.11376953,0.11376953,0.1928711,0.1928711,0.21923828,0.21923828,0.24609375,0.27441406,0.2758789,0.30566406,0.30566406,0.3408203,0.3408203,0.36376953,0.38085938,0.38085938,0.4116211,0.421875,0.4248047,0.4248047,0.4248047,0.4814453,0.4814453,0.484375,0.484375,0.4868164,0.5234375,0.51708984,0.48632813,0.47851563,0.47070313,0.46533203,0.4584961,0.41748047,0.41748047,0.39990234,0.39990234,0.39746094,0.39746094,0.39746094,0.26367188,0.26367188,0.34423828,0.34423828,0.35302734,0.32421875,0.32421875,0.2763672,0.2763672,0.30273438,0.30273438,0.30273438,
triangle,0,4,0.35791016,0.35791016,0.35791016,0.35839844,0.35839844,0.34716797,0.34326172,0.34277344,0.3383789,0.3383789,0.34228516,0.34228516,0.3413086,0.33984375,0.35546875,0.35546875,0.35546875,0.35546875,0.35546875,0.35058594,0.35058594,0.35058594,0.34179688,0.34179688,0.34960938,0.34960938,0.33691406,0.33691406,0.34228516,0.3408203,0.34960938,0.3803711,0.43066406,0.43066406,0.43066406,0.43066406,0.4399414,0.4399414,0.29736328,0.29736328,0.29736328,0.23046875,0.17919922,0.14013672,0.14990234,0.15722656,0.075683594,0.075683594,0.091308594,0.053222656,0.04345703,0.041015625,0.056640625,0.0625,0.038085938,0.03515625,0.049804688,0.06738281,0.06982422,-0.014160156,-0.046875,-0.06542969,0.06298828,-0.107421875,-0.10498047,-0.13378906,-0.08251953,-0.05859375,-0.1303711,0.03173828,0.0107421875,-0.014160156,-0.38330078,-0.032226563,0.3251953,-0.5859375,-1.015625,-0.28466797,-0.14990234,-0.2788086,-0.375,-0.47753906,-0.50390625,-0.67578125,-0.67578125,-0.6738281,-0.62597656,-0.7182617,-0.8383789,-0.85253906,-0.73828125,-0.73828125,-0.7597656,-0.8520508,-0.8574219,-0.8496094,-0.91064453,-0.82714844,-0.6933594,-0.61083984,-0.6645508,-0.65722656,-0.6582031,-0.6582031,-0.6582031,-0.5859375,-0.5859375,-0.5839844,-0.5698242,-0.5444336,-0.5444336,-0.5283203,-0.5493164,-0.5493164,-0.5415039,-0.5415039,-0.21826172,-0.62841797,-0.25,-0.21435547,-0.11767578,0.043945313,0.043945313,0.043945313,0.12792969,0.20654297,0.28759766,0.28759766,0.31591797,0.35986328,0.41845703,0.4243164,0.4243164,0.4663086,0.4663086,0.4663086,0.46923828,0.46923828,0.4658203,0.4658203,0.48583984,0.48583984,0.48583984,0.49316406,0.49316406,0.49609375,0.48291016,0.47509766,0.47509766,0.47509766,0.44628906,0.44628906,0.41796875,0.41796875,0.36083984,0.36083984,0.36083984,
circleCw,0,4,0.24316406,0.3076172,0.1303711,0.25341797,0.2109375,0.2055664,0.20654297,0.20654297,0.20654297,0.22802734,0.25634766,0.27197266,0.2626953,0.25097656,0.25195313,0.24316406,0.23486328,0.22070313,0.22070313,0.23486328,0.23486328,0.23486328,0.22949219,0.22753906,0.21728516,0.20507813,0.171875,0.32861328,0.21191406,0.24853516,0.2397461,0.22705078,0.23095703,0.24169922,0.25585938,0.24511719,0.24414063,0.27001953,0.2548828,0.234375,0.2319336,0.18017578,0.18017578,0.16308594,0.17480469,0.20361328,0.19189453,0.20703125,0.20654297,0.04345703,0.047851563,0.047851563,0.115234375,0.14160156,0.16210938,0.19482422,0.19482422,0.20410156,0.20410156,0.27148438,0.27148438,0.27148438,0.2265625,0.2265625,0.10253906,0.10253906,0.11621094,-0.020019531,-0.20410156,-0.20410156,-0.20410156,-0.10449219,-0.10449219,-0.24511719,-0.4633789,-0.4633789,-0.49609375,-0.49609375,-0.60009766,-0.60009766,-0.60009766,-0.7680664,-0.7680664,-0.73779297,-0.73779297,-0.73779297,-0.8808594,-0.8808594,-0.82421875,-0.6796875,-0.6870117,-0.6435547,-0.6435547,-0.6694336,-0.60058594,-0.5058594,-0.49609375,-0.49951172,-0.49951172,-0.44384766,-0.3935547,-0.3935547,-0.35009766,-0.31445313,-0.23632813,-0.13085938,-0.13085938,-0.09472656,-0.07910156,-0.103515625,-0.103515625,-0.061035156,0.078125,0.078125,0.109375,0.17236328,0.25683594,0.3334961,0.39892578,0.42626953,0.42626953,0.43017578,0.43017578,0.44726563,0.4819336,0.4819336,0.4189453,0.4189453,0.43652344,0.43652344,0.5024414,0.5942383,0.5942383,0.9951172,0.9951172,-0.021484375,0.35498047,0.35498047,0.3491211,0.3491211,0.3461914,0.33642578,0.34033203,0.35009766,0.37939453,0.3408203,0.29785156,0.31689453,0.3623047,0.3461914,0.33544922,0.31298828,0.31396484,0.29345703,
circleCcw,0,4,0.19042969,0.19042969,0.20751953,0.20751953,0.20751953,0.2211914,0.2211914,0.21777344,0.21777344,0.22802734,0.19482422,0.19482422,0.17919922,0.1743164,0.17578125,0.21679688,0.21679688,0.21679688,0.17089844,0.3071289,0.30908203,-0.06347656,-0.06347656,0.32714844,0.35791016,0.20117188,0.21582031,0.21923828,0.20996094,0.20996094,0.20996094,0.20751953,0.2084961,0.1928711,0.1928711,0.2084961,0.2084961,0.2084961,0.25390625,0.25390625,0.23291016,0.23291016,0.1899414,0.1899414,0.1899414,0.44580078,0.44580078,0.20800781,0.19238281,0.16699219,0.12939453,0.12939453,0.010253906,0.010253906,-0.010253906,-0.17675781,-0.17675781,-0.16210938,-0.16210938,-0.28808594,-0.28808594,-0.28808594,0.30517578,0.05078125,0.05078125,-0.73291016,-1.3291016,-0.97802734,-1.0004883,-1.0004883,-1.0004883,-1.3447266,-1.3447266,-0.8310547,-1.0083008,-1.0083008,-0.99072266,-0.99072266,-0.9121094,-0.9121094,-0.9121094,-1.0693359,-1.0693359,-0.71875,-0.71875,-0.6503906,-0.7167969,-0.6616211,-0.6616211,-0.39648438,-0.39648438,-0.39648438,-0.39648438,-0.39648438,-0.32226563,-0.32226563,-0.32226563,-0.32226563,-0.32226563,-0.24511719,-0.18603516,-0.11328125,-0.11279297,-0.06982422,0.043945313,0.10888672,0.13476563,0.14257813,0.14355469,0.16308594,0.18896484,0.27392578,0.27392578,0.30078125,0.30078125,0.30078125,0.30078125,0.30078125,0.36767578,0.28320313,0.28320313,0.28320313,0.28320313,0.20654297,0.20654297,0.20654297,0.20654297,0.20654297,0.27392578,0.33154297,0.33154297,0.3701172,0.3701172,0.3701172,0.35888672,0.33154297,0.33154297,0.33154297,0.29589844,0.32470703,0.29541016,0.29541016,0.29541016,0.3149414,0.26513672,0.26513672,0.20019531,0.20019531,0.20019531,
left,0,5,-0.08886719,-0.08886719,0.087890625,0.087890625,0.087890625,-0.33984375,-0.32861328,0.17480469,0.8027344,0.26708984,0.32177734,0.34570313,0.33544922,0.33544922,0.3515625,0.3515625,0.34765625,0.3540039,0.3540039,0.34960938,0.34960938,0.3486328,0.3486328,0.3486328,0.35107422,0.35107422,0.34570313,0.33203125,0.33203125,0.33203125,0.27685547,0.44677734,0.44677734,0.38867188,0.3569336,0.3569336,0.359375,0.37646484,0.34521484,0.4189453,0.4189453,0.4189453,0.37890625,0.14208984,0.14208984,0.0,-0.14550781,-0.14550781,-0.18261719,-0.3803711,-0.3803711,-0.16015625,-0.07910156,-0.09326172,-0.1381836,-0.109375,-0.109375,-0.13134766,-0.09423828,-0.083496094,-0.2368164,-0.2836914,-0.2836914,0.07470703,0.07470703,-0.22167969,-0.22167969,0.609375,0.609375,0.16992188,-0.07080078,-0.07080078,-0.022460938,-0.022460938,-0.022460938,0.0053710938,0.0053710938,0.022949219,0.022949219,0.03125,0.0043945313,0.0043945313,-0.05126953,-0.06982422,-0.06982422,-0.06982422,-0.03564453,-0.03564453,-0.03564453,-0.04638672,-0.04638672,-0.0034179688,-0.0034179688,-0.0034179688,-0.013671875,-0.013671875,
right,0,5,0.21923828,0.21923828,0.21923828,0.16601563,0.16601563,0.1616211,0.06591797,0.47851563,0.30126953,0.22460938,0.24560547,0.24560547,0.24560547,0.24365234,0.24365234,0.23242188,0.23144531,0.2265625,0.2265625,0.2265625,0.23828125,0.28955078,0.29736328,0.19335938,0.19335938,0.19335938,0.19335938,0.11621094,0.11621094,0.18359375,0.18359375,0.18359375,0.19042969,0.21923828,0.21923828,0.21923828,0.21923828,0.21923828,0.21923828,0.2084961,0.20361328,0.20361328,0.20361328,0.20751953,0.19238281,0.14746094,0.076171875,0.049316406,0.021972656,-0.0859375,-0.0859375,-0.0859375,-0.0859375,-0.0859375,-0.08300781,-0.095214844,-0.095214844,-0.095214844,-0.095214844,-0.030761719,-0.03466797,-0.03466797,-0.03466797,-0.03466797,-0.034179688,-0.06591797,-0.06591797,-0.06591797,0.115234375,0.115234375,0.115234375,0.10058594,0.12060547,0.17089844,0.09716797,0.09716797,0.22607422,0.22607422,0.22607422,0.22607422,0.19824219,0.19824219,0.19824219,0.19824219,0.19824219,0.16796875,0.16796875,0.14794922,0.14794922,0.14794922,0.14794922,0.14794922,0.14794922,
up,0,5,-0.07080078,-0.061035156,-0.061035156,-0.053710938,-0.053710938,-0.05517578,-0.060058594,-0.067871094,-0.068847656,-0.0546875,-0.06933594,-0.06933594,-0.060058594,-0.060058594,-0.068359375,-0.068359375,0.06933594,0.06933594,0.06933594,-0.15917969,-0.15917969,0.34423828,0.34423828,0.34423828,0.08105469,0.08105469,0.5917969,0.5917969,0.5917969,-0.10498047,-0.10498047,-0.087890625,-0.087890625,-0.13378906,-0.13378906,-0.13378906,-0.21777344,-0.32617188,-0.5415039,-0.5415039,-0.5415039,-0.19042969,-0.19042969,-0.24511719,-0.45751953,-0.5004883,-0.5004883,-0.5004883,-0.49560547,-0.49560547,-0.43603516,-0.35253906,-0.20458984,0.19921875,0.19921875,0.35107422,0.4243164,0.6279297,0.6279297,0.6196289,0.6196289,0.6196289,0.79589844,0.8691406,0.8720703,0.88671875,0.94384766,1.0395508,1.0395508,0.9916992,1.0332031,1.0634766,1.0634766,1.0634766,1.0136719,1.0136719,1.0136719,1.0136719,0.9824219,0.9824219,0.9824219,1.0136719,1.0136719,1.0371094,1.0371094,1.0371094,
down,0,5,0.22558594,0.22558594,0.2290039,0.2290039,0.22460938,0.21191406,0.21435547,0.21191406,0.22363281,0.119140625,0.119140625,0.119140625,0.5239258,0.5239258,-0.16796875,0.20654297,0.3618164,0.20898438,0.22509766,0.22460938,0.22460938,0.22998047,0.21972656,0.22460938,0.2421875,0.2421875,0.24902344,0.24902344,0.265625,0.265625,0.265625,0.19482422,0.19482422,0.119628906,0.04345703,-0.26123047,-0.26123047,-0.26367188,-0.48291016,-0.32128906,-0.38330078,-0.51464844,-0.7006836,-0.9008789,-0.99316406,-1.1240234,-1.46875,-1.5893555,-1.5893555,-1.5893555,-1.7329102,-1.6943359,-1.5532227,-1.3359375,-1.2167969,-1.2167969,-1.0654297,-0.91015625,-0.92871094,-0.92871094,-0.92871094,-0.92871094,-0.9394531,-0.9633789,-0.9633789,-0.9633789,-0.9633789,-0.984375,-0.9760742,-0.99316406,-1.0341797,-1.0473633,-0.9326172,-0.9326172,-0.9326172,-0.9326172,-0.9003906,-0.9003906,
square,0,5,0.2290039,0.2290039,0.2290039,0.24072266,0.24072266,0.23095703,0.23095703,0.23095703,0.2421875,0.2368164,0.23486328,0.23486328,0.23925781,0.23925781,0.23925781,0.23388672,0.23388672,0.29101563,0.29101563,0.40283203,0.40283203,0.40283203,0.21728516,0.21728516,0.23876953,0.23876953,0.23876953,0.23046875,0.23046875,0.22998047,0.22851563,0.22167969,0.22753906,0.23144531,0.23095703,0.23095703,0.23095703,0.23095703,0.22802734,0.22802734,0.22802734,0.22021484,0.22558594,0.22558594,0.22558594,0.3334961,0.3334961,0.55322266,0.55322266,0.55322266,0.09423828,0.09423828,0.09423828,0.08642578,0.08642578,0.111328125,0.111328125,0.080566406,0.080566406,0.080566406,0.14404297,0.14404297,0.21191406,0.21191406,0.21191406,0.21191406,0.21191406,0.20458984,0.20458984,0.19970703,0.19970703,0.19140625,0.16259766,0.109375,0.06982422,-0.056640625,-0.056640625,-0.056640625,-0.088378906,-0.088378906,0.0053710938,0.0053710938,0.0053710938,0.0053710938,-0.30908203,-0.30908203,-0.30908203,-0.30908203,-0.30908203,-0.30908203,-0.3466797,-0.32763672,-0.28466797,-0.3408203,-0.3359375,-0.3359375,-0.3359375,-0.4477539,-0.4477539,-0.4477539,-0.43554688,-0.5996094,-0.5996094,-0.5996094,-0.5996094,-0.62597656,-0.7182617,-0.7182617,-0.7182617,-0.7182617,-0.63671875,-0.7241211,-0.7241211,-0.7241211,-0.7241211,-0.7495117,-0.7895508,-0.6958008,-0.6958008,-0.6958008,-0.6958008,-0.55615234,-0.4477539,-0.4477539,-0.4477539,-0.36621094,-0.36621094,-0.36621094,-0.36621094,-0.36621094,-0.40185547,-0.40185547,-0.3071289,-0.24316406,0.4013672,0.4013672,0.4013672,0.4013672,-0.2709961,-0.2709961,0.15429688,0.15429688,0.15429688,0.15429688,0.15429688,0.15429688,0.14111328,0.14111328,0.14111328,0.14111328,0.14111328,0.28710938,0.28710938,0.28710938,0.28710938,0.28710938,0.28710938,0.3486328,0.3486328,0.3486328,0.26953125,0.26953125,0.23828125,0.57470703,0.33935547,0.33935547,0.33935547,0.33935547,0.3413086,0.3413086,0.3413086,0.3413086,0.3413086,0.29052734,0.29052734,0.29052734,0.29052734,0.29052734,0.29052734,0.28564453,0.2783203,0.2783203,0.2758789,0.26611328,0.27197266,0.32421875,0.15332031,0.10839844,
triangle,0,5,0.34326172,0.34326172,0.34326172,0.2783203,0.2783203,0.2993164,0.2993164,0.2993164,0.1640625,0.1640625,0.18066406,0.18066406,0.22802734,0.22753906,0.19335938,0.15771484,0.15771484,0.18310547,0.18310547,0.18310547,0.19091797,0.19091797,0.1743164,0.1821289,0.18945313,0.17578125,0.18408203,0.18408203,0.18408203,0.12207031,0.12207031,-0.16699219,-0.16699219,-0.16699219,0.72216797,0.72216797,-0.49853516,-0.55371094,-0.55371094,-0.29345703,0.58496094,-0.54589844,-0.54589844,0.69873047,0.69873047,0.69873047,-0.43603516,-0.43603516,0.18798828,0.16064453,0.16064453,0.1694336,0.18359375,0.18359375,0.18359375,0.17773438,0.17626953,0.1743164,0.16503906,0.119628906,0.030273438,0.2626953,0.2626953,0.043945313,0.63623047,-0.11230469,-0.11230469,0.19238281,0.19238281,0.19238281,0.18554688,0.18554688,0.17480469,0.17480469,0.18115234,0.18115234,0.18115234,0.18457031,0.18457031,0.17236328,0.17236328,0.16455078,0.16455078,0.16455078,0.1977539,0.1977539,0.18847656,0.17675781,0.17675781,0.17041016,0.17041016,0.18701172,0.18701172,0.18701172,0.18701172,0.18701172,0.15917969,0.15917969,0.18652344,0.18652344,0.171875,0.17138672,0.19726563,0.1616211,0.140625,0.06298828,0.06298828,0.017578125,0.017578125,-0.018554688,-0.045410156,-0.045410156,-0.048339844,-0.09423828,-0.09423828,-0.103515625,-0.103515625,-0.2607422,-0.2607422,-0.31152344,-0.31152344,-0.27685547,-0.28173828,-0.34765625,-0.3618164,-0.3618164,-0.32128906,-0.39941406,-0.39941406,-0.39941406,-0.39941406,-0.375,-0.375,-0.375,-0.44873047,-0.44873047,-0.4765625,-0.41455078,-0.48632813,-0.48632813,-0.48632813,-0.55908203,-0.55908203,-0.57128906,-0.57128906,-0.7084961,-0.7084961,-0.7084961,-0.89160156,-0.89160156,-0.9145508,-0.9301758,-0.9301758,-0.91552734,-0.953125,-0.9897461,-0.9897461,-0.87158203,-0.87158203,-0.8510742,-0.8544922,-0.8544922,-0.90966797,-0.7504883,-0.82910156,-0.82910156,-0.82910156,-0.7392578,-0.6542969,-0.77490234,-0.77490234,-0.77490234,-0.75683594,-0.7060547,-0.7949219,-0.7949219,-0.7548828,-0.69384766,-0.64697266,-0.6191406,-0.54785156,-0.3232422,-0.3232422,-0.5053711,-0.5053711,-0.13134766,-0.13671875,-0.13671875,-0.036132813,0.13867188,0.13867188,0.2578125,0.32226563,0.3647461,0.42285156,0.42285156,0.42285156,0.42285156,0.43115234,0.43115234,0.44140625,0.44140625,0.44921875,0.44921875,0.42626953,0.4189453,0.43115234,0.4008789,0.4008789,0.40527344,0.40527344,0.37597656,0.24072266,0.24072266,0.23242188,0.33447266,0.3696289,
circleCw,0,5,0.16503906,0.16503906,0.140625,0.140625,0.13867188,0.07519531,0.07519531,0.052734375,0.044433594,-0.036132813,-0.036132813,-0.1381836,-0.1381836,-0.1381836,-0.17333984,-0.20703125,-0.24072266,-0.26708984,-0.3232422,-0.41601563,-0.39697266,-0.43847656,-0.55908203,-0.6166992,-0.6166992,-0.6166992,-0.77783203,-0.77783203,-0.86328125,-0.86328125,-0.90966797,-0.90966797,-0.90966797,-0.9970703,-0.9916992,-0.9355469,-0.89746094,-0.921875,-0.9404297,-0.90966797,-0.85839844,-0.85839844,-0.88671875,-0.703125,-0.703125,-0.703125,-0.703125,-0.67041016,-0.67041016,-0.6401367,-0.6401367,-0.6401367,-0.5991211,-0.55566406,-0.55566406,-0.53222656,-0.5288086,-0.5288086,-0.5288086,-0.3330078,-0.3330078,-0.18164063,-0.18164063,-0.18164063,-0.09667969,-0.09667969,-9.765625E-4,-9.765625E-4,0.11816406,0.11816406,0.11816406,0.14208984,0.17871094,0.18701172,0.25146484,0.25146484,0.29003906,0.29003906,0.33642578,0.33642578,0.33740234,0.2944336,0.39453125,0.39453125,0.39453125,0.20361328,0.20361328,0.43847656,0.43847656,0.43847656,0.33691406,0.33691406,0.3256836,0.32421875,0.34716797,0.34716797,0.34716797,0.34765625,0.34765625,0.33935547,0.33935547,0.32861328,0.3173828,0.3173828,0.2919922,0.2919922,0.29345703,0.29345703,0.29345703,0.2866211,
circleCcw,0,5,0.2890625,0.25390625,0.25927734,0.2578125,0.2578125,0.27197266,0.26660156,0.24853516,0.2578125,0.27148438,0.2680664,0.27441406,0.27441406,0.22070313,0.22070313,0.26953125,0.26953125,0.26953125,0.2211914,0.16308594,0.44726563,0.28320313,0.28320313,0.29003906,0.26611328,0.28125,0.29736328,0.28515625,0.2783203,0.2783203,0.27294922,0.29052734,0.34326172,0.34326172,0.34326172,0.35205078,0.34716797,0.41455078,0.41455078,0.42919922,0.39892578,0.38427734,0.36376953,0.19384766,0.19384766,0.19189453,0.3071289,0.37451172,0.37451172,0.3671875,0.34033203,0.3100586,0.2241211,0.2241211,0.17041016,0.13720703,0.109375,0.053222656,0.13427734,-0.080078125,-0.16015625,-0.26220703,-0.26220703,-0.30810547,-0.30810547,-0.52490234,-0.52490234,-0.5131836,-0.47998047,-0.47998047,-0.69140625,-0.69140625,-0.71875,-0.7451172,-1.0649414,-1.0649414,-1.0649414,-1.1240234,-1.1240234,-1.1240234,-1.1298828,-1.1298828,-1.1894531,-1.1894531,-1.1894531,-1.0263672,-1.0263672,-0.97558594,-0.97558594,-0.8769531,-0.8769531,-0.7597656,-0.82470703,-0.8305664,-0.65625,-0.65625,-0.63671875,-0.63671875,-0.63671875,-0.50683594,-0.50683594,-0.56396484,-0.50878906,-0.44970703,-0.40771484,-0.39404297,-0.23583984,-0.23583984,-0.059570313,-0.059570313,-0.059570313,0.061035156,0.061035156,0.123046875,0.123046875,0.17382813,0.2133789,0.21875,0.22705078,0.22705078,0.24316406,0.24853516,0.24853516,0.35351563,0.35351563,0.34033203,0.34033203,0.3330078,0.30566406,0.30566406,0.32910156,0.32910156,0.3203125,0.2919922,0.2866211,0.29052734,0.29052734,0.29052734,0.29052734,0.29052734,0.29052734,0.35058594,0.35058594,0.35058594,0.32958984,0.32958984,0.34179688,
left,0,6,0.27539063,0.27539063,0.27539063,0.27539063,0.27539063,0.24707031,0.22949219,0.3461914,0.35888672,0.44335938,-0.04638672,0.19091797,0.26123047,0.265625,0.265625,0.25830078,0.25830078,0.2680664,0.25585938,0.25585938,0.24121094,0.25195313,0.25146484,0.25146484,0.25439453,0.25439453,0.25439453,0.2529297,0.25830078,0.2602539,0.2602539,0.26513672,0.26513672,0.26513672,0.2915039,0.2915039,0.265625,0.265625,0.265625,0.25390625,0.25390625,0.20263672,0.20263672,0.1538086,0.1538086,0.1538086,-0.24023438,-0.24023438,0.32226563,-0.4375,-0.63964844,-0.03173828,-0.03173828,-0.84765625,-0.84765625,-0.9477539,0.34423828,-0.87353516,0.2241211,-0.9667969,-0.69677734,-0.69677734,0.19921875,0.19921875,0.19921875,0.37353516,-0.107421875,-0.1015625,-0.1015625,-0.26611328,-0.26611328,-0.26611328,0.203125,0.203125,0.54052734,0.54052734,0.54052734,-0.6591797,-0.6591797,-0.19042969,-0.19042969,-0.36376953,-0.36376953,-0.36376953,-0.51220703,-0.51220703,-0.2890625,-0.2890625,-0.2890625,-0.2890625,0.26220703,-0.5854492,-0.5854492,0.7338867,0.7338867,0.7338867,-0.11328125,-0.11328125,-0.22314453,-0.22314453,-0.0068359375,-0.0068359375,0.071777344,0.071777344,0.071777344,0.18701172,0.18701172,-0.0053710938,-0.0053710938,-0.0053710938,
right,0,6,0.17285156,0.17285156,0.17773438,0.17773438,0.17773438,0.17773438,0.18359375,0.18164063,0.171875,0.18359375,0.17871094,0.17871094,0.18066406,0.18066406,0.17871094,0.17871094,0.17871094,0.16796875,0.16796875,0.18164063,0.18164063,0.18847656,0.18847656,0.1821289,0.18603516,0.18603516,0.18359375,0.17871094,0.18017578,0.17529297,0.17529297,0.17578125,0.17578125,0.1665039,0.15234375,0.15234375,0.13476563,0.13476563,0.12109375,0.08642578,0.12451172,0.06591797,0.06591797,0.06201172,0.06689453,0.0014648438,-0.027832031,-0.056152344,-0.07470703,-0.07470703,-0.10888672,-0.10888672,-0.13574219,-0.13574219,-0.08984375,-0.072265625,-0.072265625,-0.076660156,-0.076660156,-0.0034179688,-0.0034179688,-0.0034179688,0.018066406,0.018066406,0.0390625,0.08496094,0.114746094,0.114746094,0.114746094,0.09082031,0.09082031,0.13183594,0.13183594,0.07714844,0.10205078,0.10205078,0.07861328,0.07861328,0.09326172,0.09667969,0.09667969,0.059570313,0.059570313,0.048828125,0.0625,0.03955078,0.03955078,0.03955078,0.07470703,0.07470703,0.03125,0.025878906,0.057617188,0.057617188,0.057617188,0.046875,0.046875,0.05029297,0.06201172,0.080078125,0.05810547,0.05859375,
up,0,6,-0.056640625,-0.056640625,-0.056640625,-0.040527344,-0.040527344,-0.048339844,-0.048339844,-0.048339844,-0.041503906,-0.034179688,-0.040039063,-0.040039063,-0.05029297,-0.04248047,-0.04248047,-0.048339844,-0.048339844,-0.04736328,-0.04638672,-0.046875,-0.041503906,-0.04248047,-0.04296875,-0.0390625,-0.03857422,-0.05029297,-0.04296875,-0.0390625,-0.04736328,-0.053222656,-0.053222656,-0.049316406,-0.05419922,-0.05419922,-0.051757813,-0.051757813,-0.05517578,-0.061523438,-0.024414063,-0.024414063,-0.024414063,0.08691406,0.08691406,0.24511719,0.24511719,-0.13720703,-0.13720703,-0.13720703,-0.21484375,-0.21484375,-0.16894531,-0.16894531,-0.20410156,-0.09814453,-0.09814453,0.060546875,0.060546875,0.13867188,0.1899414,0.2607422,0.53808594,0.53808594,0.56933594,0.5996094,0.68310547,0.8330078,0.8330078,0.9526367,0.9526367,0.984375,0.984375,1.0424805,1.0424805,1.0424805,0.9926758,1.027832,1.1000977,1.1000977,1.1000977,1.1337891,1.1137695,1.0693359,1.0693359,1.0805664,1.0673828,1.0458984,1.0668945,1.0717773,1.0571289,1.0541992,1.0229492,1.0234375,1.019043,1.0019531,1.0209961,1.019043,1.019043,1.043457,
down,0,6,0.20703125,0.20703125,0.19970703,0.19970703,0.19970703,0.20361328,0.19580078,0.2084961,0.2084961,0.20751953,0.20166016,0.20166016,0.2084961,0.2084961,0.22265625,0.22265625,0.22265625,0.20654297,0.19042969,0.18896484,0.18896484,0.21923828,0.20898438,0.20800781,0.21728516,0.203125,0.20751953,0.20751953,0.20751953,0.21875,0.21875,0.2241211,0.21728516,0.20947266,0.20947266,0.20947266,0.11767578,0.11767578,0.072265625,0.072265625,-0.083984375,-0.083984375,-0.1850586,-0.3798828,-0.3798828,-0.53759766,-0.53759766,-0.8828125,-0.8828125,-0.8828125,-0.8828125,-0.8828125,-1.0454102,-1.0454102,-1.1821289,-1.3510742,-1.3510742,-1.5078125,-1.5078125,-1.4492188,-1.0673828,-1.0673828,-0.33935547,-0.33935547,-0.9350586,-0.8051758,-0.9458008,-0.9458008,-0.8183594,-0.87646484,-0.87646484,-0.8251953,-0.90478516,-0.90478516,-0.9848633,-0.9848633,-0.96777344,-0.96777344,-0.89941406,-0.89941406,-0.89941406,-0.87939453,-0.87939453,-0.87939453,-0.9008789,-0.88134766,-0.88134766,-0.88134766,-0.93603516,-0.95410156,-0.87060547,-0.87060547,-0.87060547,-0.8652344,-0.8828125,-0.86621094,-0.85302734,-0.9135742,-0.9135742,-0.9135742,
square,0,6,0.32421875,0.32421875,0.32421875,0.32421875,0.30029297,0.28808594,0.28808594,0.29052734,0.30810547,0.3178711,0.3305664,0.3305664,0.36816406,0.36816406,0.36132813,0.3647461,0.34716797,0.30273438,0.28710938,0.27685547,0.28759766,0.2890625,0.2836914,0.27490234,0.27246094,0.25878906,0.25732422,0.2758789,0.2758789,0.26464844,0.27197266,0.2680664,0.2680664,0.2685547,0.2685547,0.23095703,0.234375,0.22558594,0.2084961,0.20654297,0.23095703,0.23095703,0.1303711,0.1303711,0.1303711,0.15673828,0.17626953,0.17285156,0.17285156,0.18359375,0.16699219,0.18310547,0.2734375,0.2734375,0.27148438,0.3100586,0.3100586,0.31103516,0.31103516,0.2475586,0.2475586,0.23779297,0.13671875,0.13671875,0.07470703,0.07470703,-0.07421875,-0.07421875,-0.07421875,-0.07421875,-0.13574219,-0.13916016,-0.13916016,-0.043945313,-0.0073242188,-0.045898438,-0.11376953,-0.11376953,-0.11376953,-0.15429688,-0.2084961,-0.20605469,-0.20605469,-0.23291016,-0.23291016,-0.23291016,-0.3544922,-0.3544922,-0.33691406,-0.33691406,-0.3305664,-0.34375,-0.34375,-0.38232422,-0.38232422,-0.40820313,-0.5727539,-0.5727539,-0.72802734,-0.72802734,-0.85791016,-0.85791016,-0.8300781,-0.8300781,-0.8300781,-0.80566406,-0.66845703,-0.5488281,-0.5488281,-0.59814453,-0.5185547,-0.5185547,-0.54589844,-0.56103516,-0.47021484,-0.41601563,-0.45996094,-0.45996094,-0.45996094,-0.48046875,-0.48046875,-0.4736328,-0.5283203,-0.5283203,-0.5131836,-0.5131836,-0.3774414,-0.3774414,-0.32666016,-0.22753906,-0.22753906,-0.15820313,-0.09863281,-0.044433594,-0.03466797,0.06933594,0.06933594,0.06933594,0.095703125,0.095703125,0.14013672,0.14013672,0.14013672,0.12597656,0.12597656,0.13867188,0.13867188,0.18798828,0.18798828,0.18798828,0.20654297,0.2109375,0.29101563,0.29101563,0.30615234,0.3701172,0.3701172,0.37548828,0.36767578,0.40185547,0.40185547,0.39697266,0.40039063,0.39648438,0.3881836,0.39990234,0.39990234,0.40283203,0.41796875,0.40039063,0.40039063,0.39648438,0.39697266,0.38085938,0.3618164,0.3623047,
triangle,0,6,0.32666016,0.32666016,0.32666016,0.3388672,0.3388672,0.33935547,0.32714844,0.31835938,0.3125,0.3125,0.32714844,0.32177734,0.3125,0.3125,0.3125,0.32861328,0.32861328,0.3203125,0.32763672,0.3256836,0.31445313,0.31445313,0.33007813,0.33007813,0.32373047,0.32763672,0.32861328,0.31689453,0.31689453,0.32226563,0.32177734,0.31591797,0.3178711,0.3178711,0.31054688,0.31396484,0.3100586,0.3100586,0.27685547,0.27685547,0.27685547,0.24365234,0.24365234,0.21679688,0.21679688,0.076660156,0.076660156,0.076660156,0.080566406,0.068359375,0.040039063,0.016113281,-0.024902344,-0.024902344,-0.041503906,-0.05078125,-0.05078125,-0.106933594,-0.106933594,-0.106933594,-0.071777344,-0.07470703,-0.11621094,-0.14111328,-0.1328125,-0.10595703,-0.12109375,-0.20214844,-0.20214844,-0.2133789,-0.2133789,-0.23828125,-0.23632813,-0.24023438,-0.2602539,-0.2602539,-0.34472656,-0.34472656,-0.390625,-0.45654297,-0.45654297,-0.3540039,-0.3540039,-0.5859375,-0.5859375,-0.5859375,-0.71972656,-0.71972656,-0.8276367,-1.109375,-1.109375,-1.109375,-1.109375,-1.0551758,-0.9067383,-0.9067383,-0.9067383,-0.7080078,-0.8076172,-0.8076172,-0.7705078,-0.75341797,-0.7626953,-0.68847656,-0.68847656,-0.65966797,-0.65966797,-0.6425781,-0.6113281,-0.65283203,-0.65283203,-0.6665039,-0.61572266,-0.4272461,-0.36865234,-0.36865234,-0.36865234,-0.36865234,-0.29785156,-0.2626953,-0.20800781,-0.14257813,0.0625,0.10449219,0.10449219,0.10449219,0.16259766,0.2055664,0.27929688,0.32617188,0.3408203,0.31933594,0.41796875,0.41796875,0.41796875,0.41796875,0.41796875,0.3984375,0.3984375,0.3984375,0.3984375,0.3984375,0.3930664,0.39404297,0.37939453,0.3798828,0.3955078,0.37841797,0.37841797,
circleCw,0,6,0.27734375,0.27734375,0.25976563,0.25976563,0.25976563,0.2626953,0.2626953,0.2734375,0.2734375,0.25585938,0.25585938,0.25585938,0.2578125,0.26757813,0.25830078,0.25634766,0.25976563,0.25976563,0.25976563,0.25048828,0.25048828,0.26660156,0.2607422,0.265625,0.27148438,0.26757813,0.25927734,0.26611328,0.27685547,0.2319336,0.2319336,0.2319336,0.21826172,0.21875,0.21875,0.234375,0.23828125,0.25927734,0.25927734,0.25927734,0.2084961,0.2084961,0.19042969,0.19042969,0.16845703,0.15966797,0.15917969,0.16503906,0.16503906,0.16503906,0.1694336,0.1694336,0.13427734,0.13427734,0.1430664,0.1430664,0.1430664,0.13671875,0.13671875,0.12158203,0.119140625,0.052734375,0.052734375,0.052734375,-0.02734375,0.048339844,-0.032226563,-0.032226563,-0.032226563,-0.095703125,-0.14892578,-0.119140625,-0.119140625,-0.38671875,-0.38671875,-0.38671875,-0.3671875,-0.37451172,-0.4375,-0.52734375,-0.74560547,-0.74560547,-0.74560547,-0.77978516,-0.77978516,-0.8544922,-0.8544922,-0.8432617,-0.8432617,-0.8432617,-0.7910156,-0.7910156,-0.7705078,-0.7705078,-0.83691406,-0.71191406,-0.71191406,-0.8691406,-0.8691406,-0.71240234,-0.6298828,-0.6298828,-0.55029297,-0.55029297,-0.47851563,-0.5917969,-0.40039063,-0.40039063,-0.40039063,-0.44580078,-0.38330078,-0.2368164,-0.2368164,-0.2368164,-0.17675781,-0.17675781,-0.12646484,-0.064453125,0.033691406,0.033691406,0.09863281,0.14550781,0.18359375,0.22949219,0.27734375,0.36572266,0.36572266,0.36572266,0.36572266,0.36572266,0.38720703,0.38720703,0.37841797,0.42138672,0.42138672,0.33496094,0.33496094,0.37060547,0.37060547,0.37060547,0.33691406,0.33691406,0.31396484,0.31396484,0.31689453,0.31689453,0.3149414,0.3544922,0.3544922,0.3544922,0.3544922,0.3017578,0.3017578,0.30664063,0.35498047,0.3154297,0.3330078,0.3330078,0.2998047,0.27148438,0.27148438,0.26513672,0.25927734,
circleCcw,0,6,0.16113281,0.16113281,0.15673828,0.15673828,0.1430664,0.1430664,0.1430664,0.15332031,0.15332031,0.17041016,0.16064453,0.12988281,0.12988281,0.12988281,0.1430664,0.13964844,0.13916016,0.13916016,0.15429688,0.1508789,0.1508789,0.15917969,0.1484375,0.14892578,0.14355469,0.14355469,0.13769531,0.1303711,0.1381836,0.12890625,0.13671875,0.14257813,0.14257813,0.15527344,0.1665039,0.16552734,0.16552734,0.13476563,0.14355469,0.14355469,0.17333984,0.17333984,0.2006836,0.18310547,0.18310547,0.23339844,0.23339844,0.21972656,0.21972656,0.18603516,0.18603516,0.18603516,0.125,0.125,0.09667969,0.09667969,-0.07080078,-0.07080078,-0.07080078,-0.063964844,-0.12011719,-0.28955078,-0.28955078,-0.28955078,-0.34326172,-0.34326172,-0.38916016,-0.38916016,-0.63427734,-0.63427734,-0.63427734,-0.76220703,-0.7573242,-0.7573242,-0.7573242,-0.87939453,-0.87939453,-0.86816406,-0.9038086,-0.9038086,-1.0249023,-1.0375977,-0.9375,-1.0361328,-1.0361328,-0.9946289,-0.9404297,-0.93408203,-0.95751953,-0.95751953,-0.6904297,-0.67041016,-0.67041016,-0.67041016,-0.6123047,-0.6123047,-0.6123047,-0.52441406,-0.52441406,-0.4741211,-0.4711914,-0.31591797,-0.31591797,-0.31591797,-0.27197266,-0.27197266,-0.2055664,-0.2055664,-0.14746094,-0.14697266,-0.09082031,-0.015625,-0.015625,0.024414063,0.12890625,0.12890625,0.20654297,0.20654297,0.14208984,0.14208984,0.19238281,0.2055664,0.2055664,0.2055664,0.2055664,0.23339844,0.25732422,0.25732422,0.25732422,0.25732422,0.23095703,0.24511719,0.24511719,0.23242188,0.2368164,0.24316406,0.23925781,0.23925781,0.23925781,0.24023438,0.22167969,0.23925781,0.27685547,0.26123047,0.26123047,0.26123047,
left,0,7,0.29736328,0.29736328,0.29882813,0.29882813,0.29833984,0.29833984,0.29345703,0.29248047,0.2939453,0.2861328,0.2861328,0.28857422,0.29248047,0.2944336,0.28466797,0.28466797,0.28759766,0.28759766,0.29248047,0.2788086,0.2788086,0.27734375,0.28271484,0.27978516,0.2783203,0.27734375,0.2944336,0.2944336,0.27978516,0.27978516,0.27734375,0.2836914,0.2836914,0.28955078,0.28955078,0.29248047,0.2998047,0.2861328,0.30908203,0.29296875,0.27246094,0.28515625,0.2631836,0.2631836,0.2631836,0.23486328,0.23486328,0.18261719,0.18261719,0.14697266,0.033691406,0.033691406,-0.051757813,-0.05517578,-0.040039063,-0.07861328,-0.16308594,-0.16308594,-0.16308594,-0.23876953,-0.29541016,-0.3569336,-0.3569336,-0.3569336,-0.39160156,-0.44677734,-0.38427734,-0.38427734,-0.2734375,-0.2734375,-0.2734375,-0.22314453,-0.22314453,-0.15917969,-0.15917969,-0.11328125,-0.11328125,-0.11328125,-0.083496094,-0.083496094,-0.083496094,-0.083496094,-0.083496094,-0.049316406,-0.049316406,-0.016113281,-0.048828125,-0.0034179688,-0.0034179688,-0.0034179688,-0.017578125,-0.016601563,-0.038085938,-0.009277344,
right,0,7,0.26611328,0.26611328,0.2734375,0.2734375,0.2734375,0.28710938,0.28710938,0.28564453,0.28808594,0.2680664,0.24658203,0.234375,0.2524414,0.2524414,0.24072266,0.27001953,0.27001953,0.24414063,0.25341797,0.265625,0.265625,0.2548828,0.2548828,0.2529297,0.26220703,0.26220703,0.25976563,0.25976563,0.24511719,0.25976563,0.25976563,0.24511719,0.24902344,0.2548828,0.2548828,0.23632813,0.23632813,0.23632813,0.2055664,0.2055664,0.17919922,0.17919922,0.09814453,0.09814453,0.09814453,0.06738281,0.06738281,0.01171875,0.01171875,0.01171875,-0.03515625,-0.03515625,-0.05517578,-0.09033203,-0.123046875,-0.123046875,-0.088378906,-0.14941406,-0.111328125,-0.18701172,-0.17773438,0.05810547,0.05810547,0.05810547,0.1953125,0.1953125,0.18652344,0.18652344,0.18652344,0.27783203,0.27783203,0.27978516,0.27978516,0.2841797,0.2841797,0.27392578,0.27392578,0.27392578,0.2758789,0.31298828,0.29101563,0.3022461,0.3022461,0.26904297,0.33447266,0.25683594,0.25683594,0.25683594,0.2290039,0.2290039,0.25097656,0.2290039,0.2290039,0.1977539,0.2006836,0.21875,0.21875,0.21875,0.23046875,0.23046875,0.21972656,0.19335938,
up,0,7,0.0087890625,0.0087890625,0.0087890625,0.012207031,0.012207031,0.015136719,0.015136719,0.012207031,0.016601563,0.016601563,-4.8828125E-4,-4.8828125E-4,0.0029296875,0.0029296875,0.0029296875,0.011230469,0.001953125,0.012207031,0.012207031,4.8828125E-4,-0.0014648438,-0.0014648438,0.0068359375,0.0068359375,0.005859375,0.0087890625,0.0126953125,0.0048828125,0.0068359375,0.0068359375,0.0068359375,-0.0014648438,-0.0014648438,0.07519531,0.10644531,0.048339844,0.02734375,0.02734375,0.028320313,0.028320313,0.028320313,0.017578125,0.017578125,-0.04296875,-0.04296875,-0.028808594,-0.028808594,-9.765625E-4,0.057617188,0.057617188,0.09033203,0.09033203,0.38476563,0.38476563,0.38476563,0.5341797,0.5004883,0.5810547,0.6040039,0.6767578,0.7729492,0.84472656,0.8598633,0.9350586,1.0981445,1.0981445,1.0864258,1.0668945,1.0668945,1.1289063,1.1137695,1.0200195,1.0200195,1.0766602,1.0322266,1.0322266,1.0444336,1.0444336,1.0444336,1.0327148,1.0327148,1.0566406,1.0566406,1.0556641,1.0556641,1.0556641,1.065918,1.0463867,
down,0,7,0.14941406,0.14941406,0.1459961,0.1459961,0.12890625,0.12890625,0.12890625,0.14746094,0.14746094,0.14892578,0.16357422,0.1850586,0.17578125,0.17578125,0.17822266,0.17822266,0.076171875,0.076171875,-0.16210938,-0.16210938,-0.16210938,-0.3017578,-0.3017578,-0.36035156,-0.46191406,-0.5756836,-0.7207031,-0.85253906,-1.0302734,-1.1826172,-1.4765625,-1.6147461,-1.6147461,-1.3320313,-1.3320313,-1.4453125,-1.5546875,-1.1533203,-1.1533203,-1.1533203,-0.86865234,-0.86865234,-0.7949219,-0.74121094,-0.7753906,-0.8305664,-0.8486328,-0.8569336,-0.8959961,-0.9165039,-0.92822266,-0.9370117,-0.9291992,-0.9291992,-0.94091797,-0.9433594,-0.95703125,-0.97558594,-0.97558594,-0.9609375,-0.9458008,-0.9116211,-0.9116211,-0.9116211,-0.8955078,-0.88720703,-0.8886719,-0.8886719,-0.8959961,-0.9091797,-0.9091797,-0.9057617,-0.9057617,-0.88671875,-0.88671875,-0.8955078,-0.9008789,-0.9067383,-0.89453125,-0.89453125,-0.9165039,-0.9165039,-0.9223633,-0.89453125,-0.89453125,
square,0,7,0.36328125,0.36328125,0.36328125,0.36328125,0.35888672,0.35888672,0.36083984,0.36083984,0.36083984,0.3540039,0.3540039,0.35302734,0.35302734,0.3618164,0.3623047,0.3623047,0.32910156,0.32910156,0.33691406,0.3461914,0.34570313,0.3461914,0.33984375,0.3466797,0.3466797,0.35107422,0.35107422,0.35107422,0.3540039,0.3540039,0.35009766,0.35107422,0.3544922,0.33544922,0.34472656,0.34570313,0.35107422,0.34716797,0.33496094,0.33935547,0.31054688,0.31054688,0.30664063,0.30664063,0.2915039,0.28271484,0.28271484,0.24951172,0.24951172,0.25341797,0.25341797,0.24951172,0.24951172,0.24951172,0.25,0.25,0.2475586,0.2475586,0.3227539,0.3227539,0.3227539,0.3408203,0.3408203,0.32128906,0.32128906,0.3408203,0.28173828,0.28173828,0.25097656,0.25097656,0.13964844,0.13964844,0.08544922,-0.03857422,-0.03857422,0.009277344,0.052246094,-0.06591797,-0.06591797,0.025878906,-0.057128906,-0.057128906,-0.05126953,-0.13134766,-0.13134766,-0.15429688,-0.15429688,-0.107910156,-0.107910156,-0.19335938,-0.27197266,-0.27197266,-0.2602539,-0.2602539,-0.26513672,-0.26123047,-0.3022461,-0.35107422,-0.35107422,-0.35107422,-0.46972656,-0.5371094,-0.5371094,-0.59472656,-0.59472656,-0.59472656,-0.65722656,-0.7060547,-0.75634766,-0.75634766,-0.75634766,-0.73095703,-0.76904297,-0.6435547,-0.6435547,-0.5961914,-0.6376953,-0.6376953,-0.5341797,-0.5341797,-0.50683594,-0.43310547,-0.48828125,-0.4404297,-0.4404297,-0.4482422,-0.4482422,-0.4477539,-0.4453125,-0.40039063,-0.40039063,-0.40039063,-0.33789063,-0.33789063,-0.21191406,-0.14697266,-0.14697266,-0.10205078,-0.07470703,-0.0014648438,-0.0014648438,0.0859375,0.2055664,0.2055664,0.16259766,0.17138672,0.18701172,0.18945313,0.18945313,0.18945313,0.18945313,0.18945313,0.18945313,0.23632813,0.23632813,0.25048828,0.2709961,0.2709961,0.30859375,0.30859375,0.33642578,0.33642578,0.33642578,0.32861328,0.32861328,0.35302734,0.3466797,0.3466797,0.34179688,0.34179688,0.37158203,0.39257813,0.39257813,0.4038086,0.4038086,0.3305664,0.3305664,0.3305664,0.30908203,0.30908203,0.30810547,0.30810547,0.3173828,0.3173828,0.3232422,0.3203125,0.3203125,0.30322266,0.30322266,0.30810547,0.30810547,0.30810547,0.2919922,0.2919922,0.29101563,0.29101563,0.29101563,
triangle,0,7,0.21826172,0.21826172,0.22802734,0.22802734,0.22802734,0.22802734,0.22802734,0.2163086,0.2163086,0.22216797,0.2133789,0.22802734,0.22070313,0.22070313,0.22558594,0.2241211,0.2241211,0.21777344,0.2211914,0.21582031,0.21582031,0.21777344,0.21777344,0.21142578,0.2084961,0.2133789,0.21435547,0.21826172,0.21826172,0.21826172,0.21826172,0.21142578,0.21191406,0.19384766,0.19384766,0.17773438,0.14111328,0.106933594,0.07714844,0.064453125,0.06347656,0.06347656,0.036621094,0.0146484375,0.01953125,0.0029296875,0.0029296875,0.0024414063,0.0024414063,-0.096191406,-0.096191406,-0.096191406,-0.122558594,-0.12158203,-0.14550781,-0.14550781,-0.14550781,-0.23876953,-0.23876953,-0.24511719,-0.23144531,-0.21728516,-0.2548828,-0.2548828,-0.32958984,-0.32958984,-0.35839844,-0.35839844,-0.31884766,-0.31884766,-0.31884766,-0.34765625,-0.34765625,-0.3671875,-0.3671875,-0.38916016,-0.45703125,-0.45703125,-0.5024414,-0.5024414,-0.53759766,-0.58691406,-0.58691406,-0.60498047,-0.6142578,-0.7236328,-0.7236328,-0.77490234,-0.77490234,-0.7578125,-0.8745117,-0.8745117,-0.95947266,-0.95947266,-0.84716797,-0.84716797,-0.84716797,-0.7583008,-0.71972656,-0.68408203,-0.66064453,-0.66064453,-0.5913086,-0.5913086,-0.6020508,-0.6020508,-0.64160156,-0.6230469,-0.6069336,-0.59814453,-0.59814453,-0.5732422,-0.52783203,-0.43945313,-0.43945313,-0.40478516,-0.30273438,-0.30273438,-0.26757813,-0.14941406,-0.14941406,-0.053222656,-0.053222656,0.048339844,0.048339844,0.08496094,0.14453125,0.14453125,0.2163086,0.2163086,0.30664063,0.30664063,0.35205078,0.35205078,0.37451172,0.40771484,0.40771484,0.4272461,0.421875,0.4008789,0.42529297,0.42529297,0.39697266,0.39697266,0.3955078,0.3852539,0.36914063,0.36914063,0.36914063,0.33544922,0.33544922,0.33154297,0.33154297,0.33154297,0.3256836,0.3256836,
circleCw,0,7,0.23876953,0.23876953,0.23876953,0.23876953,0.23876953,0.24609375,0.24609375,0.24609375,0.24609375,0.24707031,0.2529297,0.2529297,0.25341797,0.25341797,0.2529297,0.2421875,0.24023438,0.24023438,0.24023438,0.22753906,0.22753906,0.23144531,0.23144531,0.2397461,0.23828125,0.23828125,0.24072266,0.23828125,0.24023438,0.2290039,0.22851563,0.22851563,0.22851563,0.19970703,0.19970703,0.20605469,0.2084961,0.2084961,0.23339844,0.23339844,0.2265625,0.21923828,0.20458984,0.20458984,0.20458984,0.18701172,0.18701172,0.19482422,0.21386719,0.20751953,0.21923828,0.21923828,0.23925781,0.23925781,0.31640625,0.31640625,0.31640625,0.3466797,0.3466797,0.32128906,0.32128906,0.29785156,0.26464844,0.26464844,0.20263672,0.20263672,0.15771484,0.15771484,0.15771484,0.084472656,0.084472656,-0.07080078,-0.07080078,-0.18603516,-0.18603516,-0.18603516,-0.24267578,-0.24267578,-0.3647461,-0.3647461,-0.6123047,-0.6123047,-0.6123047,-0.6816406,-0.6645508,-0.8769531,-0.8769531,-0.8408203,-0.8408203,-0.8408203,-0.90722656,-0.90722656,-0.85595703,-0.8696289,-0.8696289,-1.0004883,-1.0004883,-0.734375,-0.734375,-0.7763672,-0.7763672,-0.7763672,-0.7949219,-0.77246094,-0.69628906,-0.6191406,-0.45996094,-0.45996094,-0.45996094,-0.43945313,-0.43945313,-0.3852539,-0.29101563,-0.29101563,-0.21728516,-0.21728516,-0.09375,-0.09375,0.04345703,0.04345703,0.04345703,0.19726563,0.19726563,0.2055664,0.17285156,0.24560547,0.24560547,0.24560547,0.38867188,0.38867188,0.58447266,0.58447266,0.58447266,0.5307617,0.42089844,0.390625,0.40234375,0.37304688,0.37304688,0.34570313,0.38378906,0.38378906,0.390625,0.390625,0.3696289,0.3696289,0.3696289,0.33251953,0.33251953,0.31298828,0.31298828,0.31298828,0.29541016,0.29541016,0.27929688,0.27929688,0.2709961,0.2709961,0.27734375,0.265625,0.25830078,0.26464844,0.26464844,0.2446289,0.2446289,0.22998047,
circleCcw,0,7,0.22021484,0.22021484,0.22021484,0.21728516,0.21728516,0.21484375,0.21484375,0.21728516,0.20605469,0.20605469,0.23046875,0.23046875,0.2163086,0.22558594,0.22558594,0.2109375,0.2109375,0.22851563,0.22998047,0.22802734,0.2290039,0.2290039,0.23144531,0.22314453,0.2397461,0.23730469,0.22363281,0.22363281,0.23291016,0.22607422,0.21240234,0.21923828,0.22167969,0.2109375,0.2265625,0.2109375,0.21240234,0.22705078,0.21777344,0.21386719,0.21875,0.23242188,0.24511719,0.26123047,0.26171875,0.24316406,0.24316406,0.24316406,0.20898438,0.1953125,0.33251953,0.33251953,0.33251953,0.33251953,0.33251953,0.3125,0.27539063,0.21777344,0.21777344,0.23828125,0.21533203,0.21533203,0.123046875,0.123046875,0.00390625,0.00390625,0.00390625,-0.18603516,-0.18603516,-0.21142578,-0.2397461,-0.38720703,-0.38720703,-0.45458984,-0.4794922,-0.49804688,-0.58447266,-0.64453125,-0.64453125,-0.7504883,-0.7504883,-0.80615234,-0.80615234,-0.89501953,-1.0795898,-1.0795898,-1.0898438,-1.0854492,-1.0107422,-1.0107422,-0.9628906,-0.9628906,-0.9628906,-1.0058594,-1.0058594,-0.8823242,-0.8823242,-0.8574219,-0.8574219,-0.8574219,-0.8046875,-0.8046875,-0.8100586,-0.70703125,-0.70703125,-0.64697266,-0.62890625,-0.4326172,-0.4326172,-0.4326172,-0.47558594,-0.47558594,-0.34033203,-0.34033203,-0.34033203,-0.15917969,-0.15917969,-0.10986328,-0.0546875,-0.03515625,0.013183594,0.037109375,0.05078125,0.05078125,0.18457031,0.18457031,0.18457031,0.24951172,0.24951172,0.23632813,0.28808594,0.3100586,0.3100586,0.34716797,0.3232422,0.3232422,0.3647461,0.33740234,0.3256836,0.3256836,0.3256836,0.3178711,0.30615234,0.30810547,0.31298828,0.31298828,0.30908203,0.30908203,0.29736328,0.29736328,0.29882813,0.29882813,0.30322266,0.3149414,0.3149414,0.32177734,0.33984375,0.3149414,0.3149414,0.32617188,0.33251953,0.33251953,0.3227539,0.31689453,0.35498047,0.4482422,0.4482422,0.40039063,0.40039063,0.3774414,0.36523438,0.36523438,
left,0,8,0.22851563,0.22851563,0.22851563,0.22851563,0.22851563,0.22998047,0.22705078,0.22705078,0.22753906,0.22753906,0.23486328,0.23632813,0.2290039,0.2290039,0.2290039,0.23632813,0.2397461,0.2475586,0.2475586,0.23828125,0.25439453,0.25439453,0.23925781,0.23925781,0.23925781,0.23925781,0.23925781,0.23730469,0.23535156,0.23583984,0.23583984,0.25,0.25390625,0.25390625,0.24951172,0.24951172,0.25878906,0.25878906,0.23779297,0.23779297,0.23779297,0.21582031,0.21582031,0.08935547,0.08935547,-0.053710938,-0.053710938,-0.053710938,-0.051757813,-0.075683594,-0.14941406,-0.10986328,-0.10986328,-0.14160156,-0.2578125,-0.2578125,-0.2578125,-0.31445313,-0.33398438,-0.32714844,-0.3071289,-0.3071289,-0.39746094,-0.39746094,-0.21386719,-0.21386719,-0.21386719,-0.10253906,-0.10253906,-0.0625,-0.0625,-0.05126953,-0.080566406,-0.080566406,-0.06982422,-0.06982422,-0.028808594,-0.0034179688,-0.0034179688,0.016113281,0.016113281,0.017578125,0.017578125,0.0034179688,0.0034179688,0.0034179688,0.05810547,0.05810547,0.020507813,0.020507813,0.014160156,0.014160156,0.014160156,0.03173828,0.03125,
right,0,8,0.1953125,0.1953125,0.19970703,0.19970703,0.19970703,0.19970703,0.19970703,0.19726563,0.19824219,0.19824219,0.19921875,0.20654297,0.2006836,0.2006836,0.19628906,0.19628906,0.19628906,0.20263672,0.19677734,0.19921875,0.19921875,0.19726563,0.19482422,0.18945313,0.1953125,0.1953125,0.18554688,0.18554688,0.19238281,0.18115234,0.18115234,0.17578125,0.17578125,0.09423828,0.09423828,0.09423828,0.10205078,0.063964844,0.009277344,0.009277344,-0.029785156,-0.05419922,-0.111816406,-0.14404297,-0.14941406,-0.20117188,-0.27392578,-0.4008789,-0.4008789,-0.4741211,-0.23535156,-0.35107422,-0.35107422,-0.34521484,-0.29638672,-0.14990234,-0.18701172,-0.110839844,0.1171875,0.00390625,0.088378906,0.088378906,0.12207031,0.10058594,0.06347656,0.06347656,0.15771484,0.15771484,0.15771484,0.15429688,0.15429688,0.10498047,0.10498047,0.10498047,0.08984375,0.08984375,0.119628906,0.119628906,0.095214844,0.095214844,0.095214844,0.087402344,0.087402344,0.08642578,0.08642578,0.09863281,0.09863281,0.09863281,0.087890625,0.087890625,0.091796875,0.091796875,0.080078125,0.080078125,0.080078125,
up,0,8,0.022949219,0.022949219,0.036132813,0.036132813,0.036132813,0.041992188,0.041992188,0.030761719,0.030273438,0.024902344,0.017578125,0.017578125,0.009277344,0.009277344,0.00390625,0.020996094,0.030761719,0.024414063,0.024414063,0.01953125,0.01953125,0.0,4.8828125E-4,4.8828125E-4,-0.0146484375,-0.016113281,-0.009765625,-0.009765625,-0.02734375,-0.02734375,-0.02734375,-0.0146484375,-0.0146484375,-0.029785156,-0.022949219,-0.022949219,-0.083984375,-0.083984375,-0.021972656,-0.021972656,-0.018554688,-0.018554688,-0.018554688,-0.05029297,-0.05029297,-0.04638672,-0.04638672,0.00390625,0.00390625,-0.005859375,0.0390625,0.038085938,0.10107422,0.11621094,0.11621094,0.20263672,0.2524414,0.34716797,0.35595703,0.6777344,0.6777344,0.6777344,0.7470703,0.7470703,0.8417969,0.8417969,0.9501953,0.91503906,0.91064453,1.0253906,1.0571289,1.0288086,1.0263672,1.09375,1.09375,1.09375,1.0859375,1.1000977,1.0600586,1.0600586,1.0600586,1.0429688,1.0429688,1.0859375,1.0859375,1.0791016,1.0791016,1.046875,1.0219727,1.0219727,0.99072266,1.0068359,
down,0,8,0.051757813,0.051757813,0.0546875,0.0546875,0.0546875,0.056152344,0.056152344,0.07421875,0.07421875,0.057128906,0.057128906,0.05908203,0.040039063,0.037597656,0.0546875,0.0546875,0.04638672,0.049316406,0.049804688,0.05029297,0.055664063,0.084472656,0.088378906,0.056152344,0.025390625,0.043945313,0.03857422,0.03857422,0.060546875,0.06542969,0.06542969,0.07324219,0.05810547,0.05810547,0.05517578,0.049316406,0.036621094,0.036621094,0.036621094,-0.0087890625,-0.0087890625,-0.092285156,-0.1352539,-0.16259766,-0.22753906,-0.28027344,-0.46240234,-0.46240234,-0.6645508,-0.6645508,-0.83691406,-1.0292969,-1.171875,-1.449707,-1.449707,-1.347168,-1.347168,-1.515625,-1.4013672,-1.4013672,-1.4541016,-1.4541016,-1.0410156,-1.0410156,-1.0410156,-0.9199219,-0.8339844,-0.77197266,-0.77197266,-0.79003906,-0.8149414,-0.8569336,-0.9448242,-0.9448242,-0.9980469,-0.9980469,-1.0390625,-1.0390625,-0.9355469,-0.84033203,-0.84033203,-0.84521484,-0.93310547,-0.93310547,-0.95410156,-0.9995117,-0.9970703,-0.9970703,-0.9111328,-0.9111328,-0.8745117,-0.9926758,-0.9926758,-0.92871094,-0.92871094,
square,0,8,0.31396484,0.31396484,0.33691406,0.33691406,0.33691406,0.29541016,0.29541016,0.31982422,0.31982422,0.30908203,0.296875,0.296875,0.30419922,0.3100586,0.29492188,0.31396484,0.31396484,0.3046875,0.28564453,0.28515625,0.28515625,0.2841797,0.2841797,0.2841797,0.28759766,0.27539063,0.2919922,0.30273438,0.31298828,0.3203125,0.30664063,0.3154297,0.3154297,0.30664063,0.29833984,0.28173828,0.35107422,0.35107422,0.3803711,0.3803711,0.38427734,0.38427734,0.38427734,0.3154297,0.3154297,0.3173828,0.28076172,0.23486328,0.23486328,0.23486328,0.2006836,0.19628906,0.19189453,0.19189453,0.20703125,0.20458984,0.20458984,0.22949219,0.21875,0.21875,0.21875,0.21875,0.104003906,0.104003906,0.068359375,0.068359375,0.020019531,0.020019531,-0.029785156,-0.071777344,-0.071777344,0.071777344,-0.0703125,-0.0703125,-0.0703125,-0.0703125,-0.18457031,-0.18457031,-0.22070313,-0.22070313,-0.1459961,-0.1459961,-0.1459961,-0.28173828,-0.28173828,-0.3515625,-0.3515625,-0.3515625,-0.47314453,-0.47314453,-0.50683594,-0.50683594,-0.6479492,-0.61572266,-0.6328125,-0.7128906,-0.7128906,-0.66064453,-0.66064453,-0.69628906,-0.66748047,-0.66748047,-0.64990234,-0.64990234,-0.5888672,-0.5888672,-0.5834961,-0.5317383,-0.5317383,-0.44384766,-0.44384766,-0.42285156,-0.42285156,-0.42285156,-0.39501953,-0.41357422,-0.40185547,-0.38867188,-0.29589844,-0.29589844,-0.29589844,-0.24804688,-0.24804688,0.064941406,0.064941406,0.064941406,0.064941406,0.064941406,0.10449219,0.16699219,0.16699219,0.16699219,0.16699219,0.17675781,0.18945313,0.2163086,0.2163086,0.23144531,0.23144531,0.3959961,0.31689453,0.31689453,0.31689453,0.31152344,0.35351563,0.35351563,0.35351563,0.35351563,0.37548828,0.3935547,0.37548828,0.36279297,0.36669922,0.37304688,0.37304688,0.37304688,0.3798828,0.34179688,0.34179688,0.33447266,0.32714844,0.30371094,0.3076172,0.31152344,0.31640625,0.32910156,0.296875,0.296875,0.296875,
triangle,0,8,0.34716797,0.34716797,0.33398438,0.33398438,0.33398438,0.34570313,0.34570313,0.3310547,0.3310547,0.34179688,0.33203125,0.33203125,0.33007813,0.33007813,0.33154297,0.33154297,0.33154297,0.3388672,0.32177734,0.30566406,0.30566406,0.32177734,0.32177734,0.32177734,0.32080078,0.32080078,0.31933594,0.31933594,0.31689453,0.31689453,0.31689453,0.2998047,0.2998047,0.31103516,0.31103516,0.3071289,0.18847656,0.18847656,0.18847656,0.18847656,0.18847656,0.100097656,0.100097656,0.001953125,0.001953125,0.013671875,-4.8828125E-4,-4.8828125E-4,-0.015625,-0.053222656,-0.09716797,-0.10986328,-0.12451172,-0.12451172,-0.12451172,-0.12451172,-0.12451172,-0.12451172,-0.104003906,-0.104003906,-0.104003906,-0.104003906,-0.104003906,-0.1303711,-0.1538086,-0.1538086,-0.1538086,-0.1538086,-0.20800781,-0.20800781,-0.20800781,-0.20800781,-0.20800781,-0.20800781,-0.22021484,-0.43847656,-0.44482422,-0.44482422,-0.44482422,-0.44482422,-0.44482422,-0.5883789,-0.5883789,-0.5883789,-0.64501953,-0.70654297,-0.7128906,-0.7128906,-0.765625,-0.72753906,-0.72753906,-0.72753906,-0.72753906,-0.73828125,-0.7084961,-0.66064453,-0.5527344,-0.5527344,-0.5527344,-0.5527344,-0.5527344,-0.5527344,-0.5522461,-0.5522461,-0.5522461,-0.5522461,-0.5522461,-0.4892578,-0.4892578,-0.47265625,-0.47998047,-0.4165039,-0.4165039,-0.4165039,-0.4165039,-0.4165039,-0.25390625,-0.25390625,-0.25390625,-0.25390625,-0.21728516,-0.19140625,-0.06640625,0.06982422,0.14941406,0.24023438,0.24023438,0.26611328,0.34814453,0.34814453,0.34814453,0.34814453,0.3803711,0.3779297,0.3779297,0.40820313,0.38623047,0.38623047,0.38623047,0.38623047,0.38623047,0.38623047,0.36328125,0.36328125,0.3569336,0.34960938,0.35009766,0.34570313,0.33007813,0.3203125,0.3203125,0.28515625,0.30322266,0.30322266,0.30322266,0.30322266,0.3256836,0.3256836,0.3256836,0.3256836,0.3256836,0.31884766,
circleCw,0,8,0.15283203,0.15283203,0.15283203,0.17480469,0.17480469,0.1821289,0.15966797,0.16015625,0.16552734,0.16455078,0.17822266,0.16113281,0.17919922,0.17919922,0.16699219,0.18066406,0.18066406,0.17480469,0.17236328,0.17480469,0.16699219,0.1821289,0.18017578,0.18896484,0.19970703,0.2084961,0.19921875,0.19921875,0.19921875,0.22753906,0.2055664,0.21142578,0.21142578,0.20654297,0.1899414,0.18798828,0.2163086,0.2163086,0.20458984,0.20458984,0.25878906,0.25878906,0.27929688,0.1796875,0.1796875,0.091308594,0.091308594,0.17529297,0.17529297,0.17529297,0.2163086,0.2163086,0.2084961,0.2084961,0.2084961,0.21044922,0.21044922,0.17773438,0.12988281,0.14501953,0.14501953,0.14501953,0.030273438,0.030273438,-0.015625,-0.015625,-0.03466797,-0.06933594,-0.13964844,-0.24853516,-0.24853516,-0.2685547,-0.3852539,-0.3852539,-0.50878906,-0.50878906,-0.4868164,-0.51953125,-0.68115234,-0.68115234,-0.7241211,-0.7128906,-0.7128906,-0.84716797,-0.84716797,-0.8330078,-0.8330078,-0.8330078,-0.7553711,-0.7553711,-0.75683594,-0.75683594,-0.73876953,-0.69628906,-0.6660156,-0.64453125,-0.64453125,-0.60253906,-0.56884766,-0.5493164,-0.4736328,-0.4736328,-0.34472656,-0.34472656,-0.30517578,-0.21191406,-0.21191406,-0.1875,-0.12597656,-0.026367188,-0.026367188,0.010253906,0.010253906,0.09375,0.1796875,0.1796875,0.2446289,0.2446289,0.2553711,0.2763672,0.30859375,0.3251953,0.33935547,0.3330078,0.3564453,0.3564453,0.40478516,0.40478516,0.3696289,0.3696289,0.38378906,0.38378906,0.38378906,0.3540039,0.3540039,0.3461914,0.3461914,0.3461914,0.38671875,0.38671875,0.35888672,0.35888672,0.3642578,0.3642578,0.3642578,
circleCcw,0,8,0.17675781,0.17675781,0.17675781,0.18457031,0.18457031,0.17236328,0.17236328,0.1850586,0.1850586,0.1850586,0.1850586,0.1850586,0.17236328,0.17236328,0.17236328,0.18115234,0.17871094,0.16992188,0.16992188,0.18701172,0.1743164,0.1694336,0.16601563,0.171875,0.18798828,0.18798828,0.17089844,0.17089844,0.17089844,0.20898438,0.2446289,0.2290039,0.18603516,0.1352539,0.13427734,0.13427734,0.12939453,0.13232422,0.17285156,0.17285156,0.17285156,0.21533203,0.21533203,0.1977539,0.21533203,0.21923828,0.21923828,0.21923828,0.2084961,0.2084961,0.21875,0.21875,0.17333984,0.17333984,0.17333984,0.07470703,0.07470703,0.0048828125,-0.025878906,-0.025878906,-0.064941406,-0.064941406,-0.1821289,-0.1821289,-0.18847656,-0.19873047,-0.25830078,-0.44140625,-0.44140625,-0.45214844,-0.45214844,-0.52197266,-0.52197266,-0.62597656,-0.6743164,-0.71972656,-0.8491211,-0.8491211,-0.8491211,-0.8120117,-0.8120117,-0.87939453,-0.87939453,-0.76904297,-0.76904297,-0.76904297,-0.7626953,-0.7626953,-0.7626953,-0.7626953,-0.7949219,-0.8457031,-0.84716797,-0.7939453,-0.7939453,-0.71240234,-0.71240234,-0.71240234,-0.5942383,-0.5942383,-0.52783203,-0.52783203,-0.4892578,-0.43115234,-0.43115234,-0.39257813,-0.39257813,-0.3017578,-0.26220703,-0.18017578,-0.18017578,-0.17822266,-0.10205078,-0.07861328,0.015136719,0.015136719,0.09423828,0.09423828,0.09423828,0.09423828,0.09423828,0.15429688,0.15429688,0.14111328,0.19091797,0.2446289,0.1274414,0.1274414,0.13769531,0.19238281,0.19238281,0.22949219,0.22558594,0.24560547,0.24560547,0.21923828,0.23535156,0.22265625,0.22265625,0.19140625,0.19140625,0.1665039,0.19873047,0.17822266,0.17822266,0.16015625,0.16015625,0.16015625,0.16015625,0.16015625,
left,0,9,0.17333984,0.17333984,0.1743164,0.1743164,0.16455078,0.16894531,0.16894531,0.16503906,0.16015625,0.1586914,0.1586914,0.1586914,0.15283203,0.16064453,0.15429688,0.15429688,0.15136719,0.15771484,0.16552734,0.16357422,0.16357422,0.15966797,0.15478516,0.15039063,0.16992188,0.16992188,0.17285156,0.14257813,0.15820313,0.16015625,0.15283203,0.16015625,0.16015625,0.15722656,0.15722656,0.1772461,0.1640625,0.1640625,0.1694336,0.18115234,0.16455078,0.15771484,0.15478516,0.16015625,0.15429688,0.1694336,0.20800781,0.107421875,0.107421875,-0.053222656,-0.053222656,-0.053222656,-0.2841797,-0.2841797,-0.30273438,-0.2866211,-0.28808594,-0.2866211,-0.2866211,-0.30322266,-0.35595703,-0.32226563,-0.29345703,-0.26757813,-0.37597656,-0.37597656,-0.35839844,-0.34716797,-0.25878906,-0.25878906,-0.21044922,-0.18896484,-0.18896484,-0.12646484,-0.12646484,-0.15576172,-0.15576172,-0.15576172,-0.16894531,-0.14746094,-0.15722656,-0.15722656,-0.15722656,-0.099609375,-0.099609375,-0.12060547,-0.12060547,-0.076660156,-0.076660156,-0.076660156,-0.05810547,-0.05810547,-0.05810547,-0.05810547,-0.08691406,-0.067871094,-0.048339844,
right,0,9,0.21435547,0.21435547,0.21435547,0.21435547,0.21435547,0.21875,0.21826172,0.21923828,0.20605469,0.20410156,0.22607422,0.22265625,0.2241211,0.2241211,0.22167969,0.22070313,0.21826172,0.21826172,0.21826172,0.2133789,0.21386719,0.21240234,0.21240234,0.20703125,0.20751953,0.20751953,0.2163086,0.2163086,0.20947266,0.2055664,0.2055664,0.21191406,0.20214844,0.18701172,0.18701172,0.19140625,0.16210938,0.13720703,0.08203125,0.08203125,-0.0107421875,-0.0107421875,-0.008300781,-0.059570313,-0.059570313,-0.20654297,-0.20654297,-0.32958984,-0.32958984,-0.32958984,-0.32958984,-0.32958984,-0.34033203,-0.34033203,-0.38476563,-0.38476563,-0.38476563,-0.2841797,-0.2841797,-0.25585938,-0.25585938,-0.09667969,-0.09667969,-0.09667969,-0.012207031,0.06933594,0.13769531,0.13769531,0.13769531,0.13232422,0.13232422,0.11669922,0.1171875,0.11230469,0.14111328,0.14257813,0.13330078,0.12402344,0.12402344,0.12402344,0.11230469,0.11230469,0.09765625,0.107910156,0.107910156,0.107910156,0.107910156,0.107910156,0.10498047,0.10498047,0.099121094,0.099121094,0.076660156,0.087890625,0.087890625,0.07763672,0.07128906,
up,0,9,0.01953125,0.01953125,0.024902344,0.024902344,0.024902344,0.0126953125,0.024414063,0.017578125,0.0126953125,0.021484375,0.0107421875,-0.0043945313,-0.0063476563,-0.0063476563,-0.0053710938,-0.0053710938,-0.016601563,-0.016601563,-0.016601563,0.008300781,-0.0048828125,-0.03125,-0.016113281,-0.011230469,-0.0014648438,-0.0014648438,0.001953125,-0.0063476563,0.0029296875,-0.011230469,-0.011230469,-0.033203125,-0.033203125,-0.059570313,-0.015136719,-0.017089844,-0.017089844,-0.017578125,0.03173828,0.03173828,0.005859375,0.020996094,-0.09765625,-0.09765625,-0.09765625,-0.1015625,-0.1015625,-0.05859375,-0.05859375,-0.05859375,-0.029785156,-0.033691406,0.20458984,0.20458984,0.5385742,0.5385742,0.5385742,0.6459961,0.6459961,0.69433594,0.7402344,0.95996094,0.95996094,0.95996094,1.0141602,1.0107422,1.0620117,1.0620117,1.0791016,1.0791016,1.0791016,1.1103516,1.1103516,1.090332,1.0654297,1.0654297,1.0327148,1.0327148,1.0170898,1.0170898,
down,0,9,0.20361328,0.20361328,0.19042969,0.19042969,0.19091797,0.19091797,0.19482422,0.19042969,0.19433594,0.18701172,0.21386719,0.171875,0.19921875,0.19335938,0.18017578,0.18359375,0.17236328,0.17236328,0.14941406,0.14941406,0.14941406,0.16552734,0.16552734,0.17041016,0.17041016,0.15332031,0.15332031,0.15332031,0.15527344,0.15527344,0.16259766,0.16259766,0.18798828,0.18798828,0.18798828,0.1875,0.19433594,0.18310547,0.19482422,0.19482422,0.17529297,0.17871094,0.17333984,0.17333984,0.12841797,0.06689453,0.0703125,-0.041015625,-0.041015625,-0.21484375,-0.21484375,-0.51123047,-0.51123047,-0.51123047,-0.8100586,-0.8100586,-1.1381836,-1.1381836,-1.4267578,-1.4267578,-1.534668,-1.3867188,-1.5014648,-1.3300781,-1.3300781,-1.3300781,-1.3818359,-1.2617188,-1.0742188,-0.9770508,-0.8203125,-0.8203125,-0.80322266,-0.81591797,-0.82421875,-0.8198242,-0.85595703,-0.91796875,-0.91796875,-0.93310547,-0.96875,-0.96875,-0.9375,-0.9375,-0.9375,-0.91259766,-0.91259766,-0.9243164,-0.9243164,-0.9321289,-0.9321289,-0.9321289,-0.9321289,-0.92041016,-0.9604492,-0.9604492,-0.9394531,-0.9394531,-0.9145508,
square,0,9,0.3100586,0.3100586,0.3100586,0.30419922,0.30419922,0.29833984,0.29833984,0.30322266,0.3022461,0.3022461,0.2939453,0.2939453,0.31201172,0.31201172,0.31054688,0.31054688,0.31054688,0.30908203,0.31396484,0.31103516,0.30517578,0.31298828,0.31298828,0.31298828,0.30566406,0.30566406,0.3017578,0.30908203,0.30810547,0.3076172,0.30615234,0.3149414,0.31298828,0.3100586,0.31201172,0.31201172,0.31201172,0.31201172,0.3203125,0.31982422,0.30566406,0.30566406,0.30859375,0.3022461,0.3022461,0.3095703,0.3251953,0.31201172,0.29101563,0.29101563,0.234375,0.234375,0.234375,0.234375,0.234375,0.22753906,0.20947266,0.23535156,0.23535156,0.25048828,0.25048828,0.22753906,0.2553711,0.25439453,0.2553711,0.2944336,0.3022461,0.34423828,0.34423828,0.36279297,0.36279297,0.35986328,0.38330078,0.38330078,0.36621094,0.34228516,0.296875,0.296875,0.25195313,0.17919922,0.17919922,0.14990234,0.14990234,0.048828125,0.048828125,0.05859375,0.05859375,0.014160156,-0.10546875,-0.10546875,-0.096191406,-0.096191406,-0.11767578,-0.15185547,-0.19824219,-0.24267578,-0.24267578,-0.24169922,-0.24169922,-0.25634766,-0.2524414,-0.2524414,-0.2836914,-0.30126953,-0.29882813,-0.30908203,-0.31445313,-0.31347656,-0.31347656,-0.35742188,-0.35742188,-0.375,-0.37109375,-0.35595703,-0.36035156,-0.3486328,-0.35498047,-0.34375,-0.37109375,-0.37451172,-0.36328125,-0.39501953,-0.37597656,-0.68603516,-0.68603516,-0.68603516,-0.7548828,-0.7548828,-0.7060547,-0.6767578,-0.67333984,-0.69140625,-0.69140625,-0.6538086,-0.6801758,-0.60302734,-0.60302734,-0.60302734,-0.5908203,-0.5908203,-0.5439453,-0.5888672,-0.5986328,-0.5986328,-0.5986328,-0.64697266,-0.64697266,-0.6386719,-0.5859375,-0.56933594,-0.56933594,-0.57910156,-0.5654297,-0.50927734,-0.44580078,-0.4609375,-0.4609375,-0.41455078,-0.41455078,-0.49414063,-0.49414063,-0.4584961,-0.45898438,-0.45263672,-0.4633789,-0.4633789,-0.41357422,-0.3623047,-0.3623047,-0.3154297,-0.3017578,-0.29003906,-0.25,-0.21728516,-0.072753906,-0.072753906,0.06982422,0.06982422,0.24853516,0.24853516,0.24853516,0.1875,0.1875,0.21533203,0.21533203,0.25097656,0.25097656,0.25585938,0.22753906,0.22753906,0.234375,0.234375,0.234375,0.21435547,0.19580078,0.20654297,0.18017578,0.18652344,0.18652344,0.17382813,0.20898438,0.20898438,0.20654297,0.20117188,0.2211914,0.24023438,0.25878906,0.26611328,0.26611328,0.26171875,0.26171875,0.265625,0.265625,0.265625,0.2529297,0.2529297,0.2529297,0.2529297,0.2529297,0.24121094,0.21191406,0.21923828,0.25439453,0.26611328,0.26513672,0.26513672,0.26367188,0.26367188,0.24804688,0.24804688,0.24804688,0.25341797,0.25976563,0.24072266,
triangle,0,9,0.22998047,0.22998047,0.22998047,0.22998047,0.22998047,0.22949219,0.23925781,0.24511719,0.24072266,0.23730469,0.25097656,0.25097656,0.24316406,0.24316406,0.23730469,0.23583984,0.24267578,0.2529297,0.26611328,0.24853516,0.24853516,0.25048828,0.25195313,0.25048828,0.23535156,0.23535156,0.22753906,0.2397461,0.24511719,0.24121094,0.24121094,0.23535156,0.22949219,0.23291016,0.2265625,0.23632813,0.22314453,0.19970703,0.16845703,0.068847656,0.068847656,0.068847656,0.068847656,-0.021484375,-0.021484375,0.05859375,0.05859375,-0.09423828,-0.09423828,-0.060546875,-0.19384766,-0.19384766,-0.265625,-0.2578125,-0.2841797,-0.4350586,-0.4350586,-0.39990234,-0.39990234,-0.40527344,-0.40527344,-0.40527344,-0.39892578,-0.3955078,-0.3461914,-0.3461914,-0.41845703,-0.41845703,-0.4091797,-0.39013672,-0.39013672,-0.40527344,-0.40527344,-0.41992188,-0.42041016,-0.42041016,-0.4404297,-0.4560547,-0.49072266,-0.49072266,-0.49072266,-0.44384766,-0.44384766,-0.54589844,-0.54589844,-0.5439453,-0.5439453,-0.5439453,-0.6538086,-0.6538086,-0.6894531,-0.6894531,-0.81591797,-0.81591797,-0.7988281,-0.81591797,-0.81591797,-0.8510742,-0.85009766,-0.81347656,-0.8305664,-0.8305664,-0.7553711,-0.7553711,-0.6777344,-0.6777344,-0.7163086,-0.6621094,-0.62646484,-0.63916016,-0.6621094,-0.64941406,-0.6347656,-0.6347656,-0.66259766,-0.6464844,-0.6347656,-0.6767578,-0.6582031,-0.6401367,-0.6401367,-0.6176758,-0.5209961,-0.5209961,-0.5209961,-0.5209961,-0.47070313,-0.4321289,-0.3720703,-0.29638672,-0.16601563,-0.16601563,-0.06591797,0.045410156,0.10058594,0.10644531,0.12890625,0.171875,0.20703125,0.2626953,0.28759766,0.32128906,0.32128906,0.32128906,0.32128906,0.5258789,0.5258789,0.5258789,0.37304688,0.37304688,0.37304688,0.37304688,0.2919922,0.2919922,0.24853516,0.2578125,0.2578125,0.2578125,0.2578125,0.21044922,0.21044922,0.21044922,0.21044922,0.21044922,
circleCw,0,9,0.19042969,0.19042969,0.18457031,0.18457031,0.18457031,0.20410156,0.20410156,0.1772461,0.1772461,0.19140625,0.19189453,0.19189453,0.17675781,0.17822266,0.19189453,0.18847656,0.19091797,0.18798828,0.16796875,0.2109375,0.2109375,0.19042969,0.18603516,0.19726563,0.21142578,0.21142578,0.18847656,0.18847656,0.2163086,0.2163086,0.2163086,0.20019531,0.20605469,0.21875,0.21289063,0.21826172,0.22167969,0.23095703,0.19433594,0.19433594,0.19482422,0.19384766,0.19482422,0.2006836,0.21142578,0.20947266,0.20751953,0.19042969,0.1796875,0.18359375,0.19140625,0.19140625,0.16455078,0.12841797,0.10986328,0.10986328,0.10986328,0.015625,0.015625,-0.021484375,-0.021484375,-0.1694336,-0.1694336,-0.1694336,-0.17382813,-0.17382813,-0.35058594,-0.35058594,-0.39648438,-0.4638672,-0.46142578,-0.62841797,-0.62841797,-0.6767578,-0.6767578,-0.79833984,-0.89697266,-0.89697266,-0.9892578,-0.9892578,-1.0175781,-1.0175781,-1.0175781,-1.0175781,-1.0175781,-0.86865234,-0.86865234,-0.8613281,-0.8925781,-0.8925781,-0.8925781,-0.8925781,-0.8691406,-0.8691406,-0.8691406,-0.81933594,-0.81933594,-0.7998047,-0.75390625,-0.70654297,-0.63134766,-0.63134766,-0.5083008,-0.5083008,-0.4711914,-0.38330078,-0.3125,-0.24023438,-0.24023438,-0.1484375,-0.1484375,-0.083984375,-0.083984375,-0.0234375,0.07470703,0.07470703,0.14648438,0.14648438,0.19921875,0.24804688,0.27392578,0.32617188,0.32617188,0.39453125,0.39453125,0.37304688,0.37939453,0.37939453,0.38964844,0.38964844,0.35791016,0.35791016,0.44580078,0.44580078,0.44580078,0.4580078,0.4580078,0.47753906,0.4868164,0.4868164,0.46777344,0.46777344,0.44482422,0.45214844,0.39746094,0.39746094,0.39746094,0.42382813,0.42382813,0.4038086,0.35888672,0.34570313,0.34570313,0.34570313,0.3618164,0.36621094,
circleCcw,0,9,0.33154297,0.33154297,0.3203125,0.3203125,0.32128906,0.32128906,0.31103516,0.32373047,0.33154297,0.32714844,0.32714844,0.3178711,0.30859375,0.30371094,0.2836914,0.2836914,0.28808594,0.28808594,0.29101563,0.2998047,0.27001953,0.26220703,0.2685547,0.30029297,0.2998047,0.2998047,0.2915039,0.3076172,0.30078125,0.28271484,0.28271484,0.2602539,0.2602539,0.28955078,0.28955078,0.28173828,0.2783203,0.2783203,0.29882813,0.32666016,0.34765625,0.32910156,0.3149414,0.33203125,0.32177734,0.50097656,0.50097656,0.35009766,0.3076172,0.31298828,0.33740234,0.33740234,0.27246094,0.27246094,0.19042969,0.19042969,0.14794922,0.04345703,0.04345703,-0.11816406,-0.11816406,-0.26513672,-0.26513672,-0.26513672,-0.38232422,-0.38232422,-0.484375,-0.484375,-0.5341797,-0.5341797,-0.5913086,-0.72558594,-0.72558594,-0.78466797,-0.82666016,-1.0390625,-1.0390625,-1.0390625,-0.95703125,-0.95703125,-1.0322266,-1.0322266,-0.9165039,-0.9223633,-0.99609375,-1.015625,-1.0175781,-1.0175781,-0.8520508,-0.8520508,-0.7573242,-0.7573242,-0.7573242,-0.7573242,-0.7573242,-0.70996094,-0.63378906,-0.52783203,-0.52783203,-0.52783203,-0.45166016,-0.45166016,-0.40039063,-0.28515625,-0.28515625,-0.22851563,-0.22851563,-0.115722656,-0.115722656,-0.06201172,0.00390625,0.049804688,0.16455078,0.16455078,0.23046875,0.23046875,0.23730469,0.23730469,0.23730469,0.27539063,0.30908203,0.32226563,0.32226563,0.28710938,0.3544922,0.38427734,0.32861328,0.32861328,0.33691406,0.33154297,0.32128906,0.3251953,0.3251953,0.296875,0.296875,0.27246094,0.27246094,0.27246094,0.24560547,0.21923828,0.23486328,0.23486328,0.23486328,0.22070313,0.22070313,0.20166016,0.20166016,
left,0,10,0.17138672,0.17138672,0.17138672,0.17089844,0.17089844,0.1694336,0.16699219,0.16357422,0.16357422,0.16210938,0.1586914,0.1586914,0.15771484,0.15771484,0.16455078,0.15478516,0.14892578,0.15673828,0.14550781,0.140625,0.14892578,0.16699219,0.15332031,0.14257813,0.15332031,0.15332031,0.14111328,0.1328125,0.1328125,0.1328125,0.1328125,0.15039063,0.15039063,0.15429688,0.14111328,0.14111328,0.12939453,0.12939453,0.16113281,0.16113281,0.09814453,0.09814453,0.09814453,0.10253906,0.10253906,0.09863281,-0.038085938,-0.15820313,-0.15820313,-0.15820313,-0.07324219,-0.07324219,-0.20800781,-0.3642578,-0.3642578,-0.3852539,-0.3852539,-0.4975586,-0.4975586,-0.5361328,-0.42041016,-0.42041016,-0.5390625,-0.5390625,-0.39013672,-0.39013672,-0.30322266,-0.29589844,-0.29638672,-0.25146484,-0.25146484,-0.16259766,-0.16259766,-0.16259766,-0.11425781,-0.11425781,-0.11669922,-0.11669922,-0.16210938,-0.16210938,-0.16210938,-0.10546875,-0.10058594,-0.068359375,-0.068359375,-0.056152344,-0.056152344,-0.056152344,-0.020996094,-0.020996094,
right,0,10,0.19189453,0.19189453,0.19628906,0.19628906,0.19628906,0.19238281,0.20361328,0.19677734,0.19873047,0.19873047,0.1772461,0.1772461,0.18603516,0.17236328,0.18652344,0.17236328,0.16210938,0.1508789,0.1508789,0.15332031,0.15332031,0.15332031,0.14697266,0.13183594,0.14257813,0.13134766,0.12548828,0.13183594,0.125,0.087402344,0.087402344,0.056152344,0.056152344,0.05029297,0.0078125,-0.051757813,-0.114746094,-0.16601563,-0.16601563,-0.16601563,-0.16601563,-0.37548828,-0.37548828,-0.4819336,-0.4609375,-0.4609375,-0.4609375,-0.4609375,-0.40625,-0.40625,-0.2319336,-0.26953125,-0.2626953,-0.2626953,-0.24658203,-0.16699219,-0.16699219,-0.15673828,-0.03125,0.022460938,-0.03466797,0.095703125,0.0043945313,0.0043945313,0.08300781,0.064453125,0.07080078,0.080566406,0.080566406,0.056640625,0.056640625,0.053710938,0.053710938,0.04736328,0.068359375,0.068359375,0.05078125,0.05859375,0.07373047,0.07373047,0.07373047,0.07080078,0.07080078,0.079589844,0.079589844,0.09472656,0.08886719,0.07910156,0.087890625,0.09326172,
up,0,10,-0.005859375,-0.005859375,-0.005859375,-0.017578125,-0.017578125,-0.04248047,-0.04248047,-0.09423828,-0.06298828,-0.06298828,-0.015136719,-0.023925781,-0.041015625,-0.041015625,-0.025390625,-0.04736328,-0.06347656,-0.036621094,-0.048339844,-0.07519531,-0.10253906,-0.076660156,-0.076660156,-0.09863281,-0.07470703,-0.07080078,-0.10107422,-0.09765625,-0.08691406,-0.091308594,-0.091308594,-0.08935547,-0.08935547,-0.1171875,-0.1171875,-0.1171875,-0.03125,0.034179688,-0.15429688,-0.15429688,-0.14453125,-0.14453125,-0.103515625,-0.21435547,-0.26513672,-0.27246094,-0.27246094,-0.27246094,-0.27246094,-0.27246094,-0.18359375,-0.18359375,-0.07470703,0.053222656,0.15429688,0.4399414,0.4399414,0.5961914,0.5961914,0.5673828,0.6044922,0.73339844,0.8574219,0.8574219,0.99658203,0.99658203,1.0410156,1.0410156,1.046875,1.0268555,1.0268555,1.015625,1.0166016,1.034668,1.0195313,0.97509766,0.9223633,0.9223633,1.0654297,1.0654297,1.1381836,1.1157227,1.1157227,1.097168,1.097168,1.0717773,1.0771484,1.0698242,
down,0,10,0.42919922,0.42919922,0.42822266,0.42822266,0.42822266,0.41455078,0.41455078,0.421875,0.4116211,0.43408203,0.41259766,0.41259766,0.4086914,0.41796875,0.4013672,0.4013672,0.40039063,0.38916016,0.39453125,0.39941406,0.39941406,0.39746094,0.39746094,0.39746094,0.39257813,0.39257813,0.39501953,0.38867188,0.3803711,0.38232422,0.38623047,0.375,0.36865234,0.36865234,0.30517578,0.30517578,0.26513672,0.26513672,0.17675781,0.17675781,0.04345703,-0.09814453,-0.09814453,-0.20361328,-0.33740234,-0.45361328,-0.5541992,-0.66552734,-0.8144531,-1.0083008,-1.1972656,-1.1972656,-1.5834961,-1.5834961,-1.2963867,-1.2963867,-1.2963867,-1.3598633,-1.3598633,-0.9873047,-0.9873047,-0.9873047,-0.6748047,-0.6748047,-0.7128906,-0.7128906,-0.9423828,-0.9423828,-0.9423828,-0.9941406,-0.94873047,-0.8623047,-0.8623047,-0.8857422,-0.8857422,-0.8857422,-0.88427734,-0.88427734,-0.8847656,-0.8847656,-0.8847656,-0.8959961,-0.8959961,-0.9453125,-0.9453125,-0.96728516,-0.96728516,
