left,0,0,0.14990234,0.14990234,0.14990234,0.5136719,0.5136719,0.5136719,0.5136719,0.60058594,0.60058594,0.7817383,0.7817383,0.68652344,0.6948242,0.828125,0.8613281,0.7285156,0.6376953,0.6376953,0.6376953,0.5986328,0.57714844,0.578125,0.49267578,0.49267578,0.54296875,0.546875,0.55126953,0.55126953,0.53466797,0.46826172,0.4765625,0.48242188,0.4350586,0.48779297,0.49560547,0.48876953,0.5332031,0.48388672,0.5283203,0.5283203,0.49414063,0.49414063,0.49414063,0.44970703,0.4169922,0.37548828,0.37548828,0.38720703,0.38720703,0.38720703,0.48046875,0.48046875,0.46240234,0.46240234,0.5703125,0.5703125,0.5703125,0.5463867,0.5463867,0.59472656,0.59472656,0.63671875,0.63671875,0.63671875,
right,0,0,0.6767578,0.6767578,0.6010742,0.6010742,0.6010742,0.7416992,0.7416992,0.7451172,0.6503906,0.6503906,0.5673828,0.5644531,0.4477539,0.35253906,0.3100586,0.3100586,0.3100586,0.42919922,0.49316406,0.30273438,0.15917969,0.19091797,0.27929688,0.2553711,0.0859375,0.057617188,0.057617188,0.057617188,0.22460938,0.12646484,0.0068359375,-0.14208984,0.08154297,0.2788086,0.022460938,-0.17871094,-0.0146484375,-0.0146484375,-0.0146484375,-0.0146484375,0.047851563,0.15527344,0.17480469,0.10107422,0.10107422,0.33203125,0.33203125,0.14013672,0.14013672,0.14013672,0.19482422,0.19482422,0.103515625,0.103515625,0.043945313,0.057617188,0.072265625,0.020019531,-0.0625,-0.07714844,-0.0146484375,-0.011230469,-0.025390625,-0.025390625,0.041992188,0.06542969,0.06542969,0.06542969,0.10644531,0.10644531,0.10644531,0.1875,0.1875,0.1875,0.1875,0.1875,0.48583984,0.48583984,0.4189453,0.4189453,0.4189453,0.4970703,0.4970703,
up,0,0,0.4008789,0.4008789,0.4008789,0.37402344,0.37402344,0.4140625,0.38378906,0.38378906,0.3564453,0.37451172,0.43945313,0.4321289,0.42919922,0.5073242,0.5859375,0.5888672,0.7368164,0.99072266,1.0297852,0.859375,0.7661133,0.74121094,0.6801758,0.57714844,0.48095703,0.38916016,0.31152344,0.22802734,0.22802734,-0.013183594,-0.013183594,0.01953125,-0.032226563,-0.03857422,-0.21679688,-0.21679688,-0.18701172,-0.18701172,-0.014160156,-0.21386719,-0.34570313,-0.2319336,-0.2319336,-0.26367188,-0.26367188,-0.26367188,-0.24169922,-0.24169922,-0.15527344,-0.15527344,-0.16015625,-0.16015625,-0.16015625,-0.29541016,-0.29541016,-0.24902344,-0.17578125,-0.19433594,-0.19433594,-0.20996094,-0.1459961,-0.1459961,-0.1459961,-0.1459961,-0.1459961,-0.07714844,-0.07714844,
down,0,0,0.4399414,0.4399414,0.4404297,0.4404297,0.4404297,0.43603516,0.43945313,0.43847656,0.43847656,0.43017578,0.44433594,0.44140625,0.42285156,0.42285156,0.4321289,0.44580078,0.44384766,0.43359375,0.43359375,0.43798828,0.43408203,0.44189453,0.44580078,0.44580078,0.4399414,0.4399414,0.43945313,0.44189453,0.43701172,0.44921875,0.453125,0.4326172,0.4326172,0.43115234,0.43115234,0.44140625,0.44433594,0.43554688,0.43554688,0.4345703,0.4428711,0.43652344,0.44433594,0.43896484,0.45117188,0.4423828,0.5107422,0.5107422,0.42333984,0.42333984,0.52685547,0.52685547,0.4375,0.4375,0.44335938,0.44482422,0.46191406,0.42236328,0.42236328,0.3701172,0.3701172,0.3701172,0.30859375,0.30859375,0.2578125,0.24658203,0.25732422,0.23828125,0.18115234,0.24365234,0.24365234,0.16113281,0.16113281,0.16113281,0.14550781,0.21875,0.42089844,0.46435547,0.068359375,0.32861328,0.32861328,0.4140625,0.26513672,0.21679688,0.33447266,0.4038086,0.44091797,0.44091797,0.56689453,0.6772461,0.114746094,0.114746094,0.25097656,0.35351563,0.17822266,-0.021972656,-0.021972656,0.12988281,0.095703125,0.05419922,0.072265625,0.072265625,0.08154297,0.12792969,0.12792969,0.12792969,0.12792969,0.046875,0.017089844,0.17578125,0.11425781,0.11425781,0.11279297,0.11279297,0.14208984,0.14208984,
square,0,0,0.14746094,0.14746094,0.14746094,0.22167969,0.22167969,0.2006836,0.2006836,0.36816406,0.3798828,0.15429688,0.08496094,0.08496094,0.33691406,0.33691406,0.111328125,-0.24365234,0.048828125,0.42773438,0.3959961,0.13476563,0.009277344,0.37402344,0.17236328,0.35546875,0.26416016,0.029785156,-0.020507813,0.084472656,-0.030273438,-0.06347656,-0.13574219,-0.22753906,-0.3857422,-0.30419922,-0.07128906,-0.19433594,-0.44482422,-0.54296875,-0.018066406,-0.018066406,-0.018066406,-0.21582031,0.296875,0.46923828,0.12011719,0.103515625,0.39746094,0.39746094,-0.052246094,-0.20507813,0.1538086,0.1538086,-0.28076172,-0.28076172,-0.2763672,-0.038085938,0.00390625,0.00390625,0.00390625,0.00390625,-0.1743164,-0.1743164,0.15332031,0.15332031,-0.08544922,0.052246094,0.052246094,-0.13574219,-0.13574219,-0.03564453,-0.068359375,-0.068359375,-0.068359375,0.0048828125,0.0048828125,0.0048828125,0.15820313,0.15820313,0.15820313,0.20410156,0.15185547,0.15185547,0.48339844,0.578125,0.578125,0.5410156,0.5410156,0.5649414,0.3955078,0.3955078,0.28808594,0.28808594,0.28808594,0.35742188,0.35742188,0.21728516,0.08642578,0.103515625,0.2084961,0.2548828,0.14208984,0.09765625,0.2866211,0.2866211,0.2866211,0.32226563,0.30371094,0.33935547,0.40283203,0.3334961,0.31152344,0.3647461,0.37109375,0.3852539,0.44873047,0.44873047,0.43847656,0.43847656,0.46826172,0.46826172,0.46826172,0.44580078,0.4584961,0.4584961,0.4584961,0.4584961,
triangle,0,0,0.4873047,0.4873047,0.49121094,0.49121094,0.48486328,0.4790039,0.48535156,0.49609375,0.49560547,0.4790039,0.4819336,0.4819336,0.5541992,0.5541992,0.61376953,0.61376953,0.61376953,0.60009766,0.47265625,0.4091797,0.4091797,0.4711914,0.4892578,0.4428711,0.37402344,0.35205078,0.34570313,0.34570313,0.44335938,0.44335938,0.37597656,0.37597656,0.37597656,0.5786133,0.65966797,0.6274414,0.46875,0.31835938,0.14990234,0.14990234,0.13916016,0.14648438,0.14648438,0.14550781,0.18652344,0.072265625,0.072265625,-0.08496094,-0.08496094,-0.08496094,-0.0625,-0.0625,-0.0625,-0.16845703,-0.032714844,-0.032714844,0.080078125,0.17822266,0.17822266,0.17822266,0.17822266,0.1899414,0.1899414,0.1899414,0.1899414,0.1899414,0.028808594,0.028808594,0.028808594,0.028808594,0.028808594,0.24609375,0.34277344,0.14648438,0.053710938,0.52441406,0.52441406,0.52441406,0.52441406,0.52441406,0.6069336,0.6069336,0.6069336,0.59375,0.59375,0.41503906,0.41503906,0.30029297,0.30029297,0.08935547,0.0625,0.0625,0.047851563,0.047851563,-0.08251953,-0.05029297,-0.05029297,0.032226563,0.17138672,0.17138672,0.17138672,0.17138672,0.17138672,0.29833984,0.3251953,0.42138672,0.4165039,0.3828125,0.4399414,0.4248047,0.4248047,0.4248047,0.5102539,0.5102539,0.49658203,0.49658203,0.484375,0.48242188,0.4399414,0.4580078,0.4580078,0.4423828,0.4272461,0.4560547,0.4638672,0.4638672,0.4638672,
circleCw,0,0,0.75927734,0.75927734,0.7783203,0.7783203,0.7524414,0.7402344,0.78564453,0.7421875,0.7421875,0.6616211,0.6616211,0.6616211,0.63183594,0.49023438,0.49023438,0.49023438,0.3642578,0.3642578,0.3642578,0.31640625,0.24707031,0.2861328,0.2861328,0.2446289,0.22265625,0.1015625,0.12548828,0.08251953,0.0053710938,-0.072753906,0.075683594,-0.12548828,-0.12548828,-0.16357422,-0.01953125,0.048339844,0.022460938,-0.17089844,-0.07519531,0.018066406,0.1328125,0.020996094,-0.3251953,-0.3251953,0.037109375,0.2368164,-0.0546875,-0.36816406,-0.16845703,0.13916016,0.13916016,0.13916016,0.20800781,0.20800781,0.12207031,0.12207031,0.12207031,-0.07128906,-0.08203125,0.17578125,0.17578125,-0.008300781,-0.008300781,-0.008300781,0.095703125,0.27734375,0.2397461,0.1303711,0.18115234,0.18115234,0.18115234,0.27294922,0.27294922,0.16796875,0.3305664,0.3305664,0.37109375,0.30322266,0.28320313,0.2578125,0.31689453,0.3466797,0.3466797,0.27978516,0.25146484,0.23046875,0.23046875,0.20361328,0.20361328,0.17236328,0.21972656,0.21972656,0.22265625,0.22265625,0.22265625,0.3203125,0.3203125,0.28759766,0.28759766,0.29345703,0.29345703,0.31396484,0.40820313,0.40820313,0.45263672,0.45263672,0.4243164,0.47460938,0.47460938,0.50878906,0.45117188,0.44140625,0.4560547,0.4560547,0.4633789,0.5058594,0.5058594,0.5058594,0.63427734,0.50634766,0.50634766,0.5053711,0.5053711,
circleCcw,0,0,0.70654297,0.70654297,0.2548828,0.2548828,0.2548828,0.5942383,0.70166016,0.3071289,-0.04296875,0.013671875,0.22705078,0.2998047,0.3154297,0.18847656,0.13330078,0.20410156,0.28320313,0.28466797,0.28466797,0.114746094,0.19189453,0.26123047,0.21875,0.053222656,0.171875,0.171875,0.171875,-0.029785156,-0.033691406,0.072753906,0.072753906,0.016601563,0.016601563,0.016601563,-0.001953125,-0.001953125,0.03173828,0.0146484375,0.024414063,0.044921875,0.09375,0.13134766,0.15625,0.22265625,0.22265625,0.29833984,0.29833984,0.29833984,0.21386719,0.23535156,0.41992188,0.41992188,0.41992188,0.5878906,0.5834961,0.6245117,0.6245117,0.6855469,0.6855469,0.70996094,0.67285156,0.67285156,0.6621094,0.6118164,0.5253906,0.5439453,0.5439453,0.5024414,0.5024414,0.53125,0.50439453,0.50439453,0.49414063,0.49414063,0.46728516,0.46728516,0.5576172,0.5576172,0.5576172,0.6298828,0.6298828,0.5864258,0.5864258,0.5566406,0.5527344,0.52246094,0.48876953,0.48876953,
left,0,1,0.7631836,0.7631836,0.7631836,0.6118164,0.6118164,0.5629883,0.5185547,0.66748047,0.66748047,0.5961914,0.50683594,0.55078125,0.6459961,0.6010742,0.57470703,0.57470703,0.57470703,0.57666016,0.57666016,0.5595703,0.52783203,0.54589844,0.54589844,0.5258789,0.43603516,0.43603516,0.6225586,0.6074219,0.5932617,0.51953125,0.5493164,0.56591797,0.56591797,0.5444336,0.5283203,0.5283203,0.4921875,0.4921875,0.5385742,0.5073242,0.5073242,0.58496094,0.58496094,0.5180664,0.5180664,0.5307617,0.5307617,0.5307617,0.55322266,0.55322266,0.5229492,0.5229492,0.52685547,0.5463867,0.5517578,0.5366211,0.5366211,0.5083008,0.55908203,0.55908203,0.55908203,0.55908203,0.55908203,0.55908203,0.53271484,0.54541016,0.5463867,0.5463867,
right,0,1,0.4501953,0.4501953,0.4555664,0.46777344,0.46289063,0.46289063,0.4609375,0.45166016,0.45166016,0.5131836,0.5131836,0.49316406,0.45996094,0.45996094,0.44482422,0.4580078,0.46142578,0.46142578,0.4428711,0.45410156,0.45410156,0.45703125,0.45703125,0.45703125,0.46289063,0.46289063,0.46240234,0.4716797,0.4819336,0.4580078,0.4580078,0.4736328,0.4921875,0.5493164,0.5493164,0.5493164,0.5605469,0.5605469,0.6748047,0.6748047,0.7963867,0.8149414,0.78466797,0.95166016,0.95166016,0.7910156,0.7910156,0.71533203,0.71533203,0.71533203,0.72021484,0.65185547,0.48632813,0.48632813,0.17382813,0.17382813,0.17382813,0.3203125,0.16699219,0.05419922,0.05419922,0.05419922,-0.125,-0.125,-0.3227539,-0.3227539,-0.38232422,-0.24072266,-0.22314453,-0.38330078,-0.38330078,-0.15820313,-0.15820313,-0.15820313,-0.23730469,-0.23730469,-0.064453125,-0.064453125,-0.010253906,0.08251953,0.08251953,-0.03125,0.034179688,0.2680664,0.2680664,0.24560547,0.24560547,0.24560547,0.22509766,0.22509766,0.19384766,0.2397461,0.18652344,0.18652344,0.18652344,0.22753906,0.28710938,0.23828125,0.23828125,0.23828125,0.22558594,0.22558594,0.234375,0.2055664,
up,0,1,0.45214844,0.45214844,0.42919922,0.42919922,0.43408203,0.4326172,0.4326172,0.43066406,0.4741211,0.4296875,0.4482422,0.3413086,0.5390625,0.5595703,0.51416016,0.5419922,0.4140625,0.4140625,0.39941406,0.40820313,0.4375,0.43164063,0.43164063,0.41210938,0.4189453,0.43164063,0.4272461,0.41357422,0.4169922,0.41015625,0.40625,0.40625,0.40625,0.3701172,0.3701172,0.32910156,0.3383789,0.3125,0.33251953,0.42578125,0.4663086,0.5214844,0.76464844,1.0385742,1.1435547,0.91845703,0.8671875,0.8666992,0.8666992,0.671875,0.671875,0.56103516,0.4248047,0.4296875,0.03857422,0.03857422,-0.21679688,-0.21679688,-0.21679688,-0.25390625,-0.25390625,-0.21533203,-0.2319336,-0.36669922,-0.36669922,-0.3310547,-0.28466797,-0.28466797,-0.38720703,-0.38720703,-0.38720703,-0.3647461,-0.3647461,-0.27392578,-0.27392578,-0.25683594,-0.25683594,-0.21533203,-0.14160156,-0.14160156,-0.123535156,-0.1328125,-0.12890625,-0.10595703,-0.12597656,-0.19335938,-0.19335938,-0.09667969,-0.09667969,-0.080078125,-0.049316406,-0.049316406,-0.017578125,-0.017578125,0.027832031,0.09033203,0.09033203,0.064453125,0.064453125,0.1821289,0.1821289,0.115722656,0.13134766,
down,0,1,0.42919922,0.42919922,0.38916016,0.38916016,0.41015625,0.41357422,0.4165039,0.40429688,0.40429688,0.4116211,0.4086914,0.42041016,0.41259766,0.3959961,0.40625,0.4243164,0.42138672,0.41796875,0.4267578,0.41357422,0.40771484,0.43066406,0.42236328,0.42236328,0.42236328,0.37646484,0.37646484,0.37646484,0.3256836,0.3256836,0.5073242,0.40527344,0.4091797,0.41357422,0.41357422,0.39501953,0.3647461,0.34326172,0.32080078,0.2368164,0.11279297,0.11279297,0.14892578,0.14892578,0.14892578,0.13378906,0.13378906,0.33496094,0.33496094,0.21582031,0.21582031,0.21582031,0.43847656,0.43847656,0.44970703,0.44970703,0.39257813,0.27929688,0.27929688,0.053222656,0.053222656,0.032226563,0.25634766,0.25634766,0.3076172,0.3076172,0.3076172,0.3076172,-0.23779297,-0.23779297,-0.23779297,0.122558594,0.057128906,0.06542969,0.06542969,0.008300781,0.008300781,0.008300781,-0.03955078,-0.03955078,0.0,0.0,0.0,0.030273438,0.028320313,0.018554688,0.04638672,-0.026367188,-0.026367188,-0.026367188,0.018554688,0.018554688,
square,0,1,0.46972656,0.46972656,0.4321289,0.4321289,0.43554688,0.46728516,0.46728516,0.4453125,0.4453125,0.45703125,0.45703125,0.45410156,0.4501953,0.4501953,0.45458984,0.45458984,0.4711914,0.46191406,0.4453125,0.47070313,0.47070313,0.46191406,0.45410156,0.45996094,0.45996094,0.4477539,0.45263672,0.45263672,0.44580078,0.4477539,0.4477539,0.4716797,0.4716797,0.46484375,0.46484375,0.5004883,0.5004883,0.5004883,0.54833984,0.56933594,0.640625,0.640625,0.64404297,0.82470703,0.82470703,0.82470703,0.82470703,0.8154297,0.7709961,0.7104492,0.63378906,0.58203125,0.40673828,0.40673828,0.42382813,0.37841797,0.37841797,0.31884766,0.31884766,0.23632813,0.23632813,0.1953125,0.18408203,0.18408203,0.23388672,0.23388672,0.2607422,0.2607422,0.35546875,0.35546875,0.359375,0.2944336,0.2944336,0.25683594,0.25683594,0.19970703,0.19970703,0.19970703,0.33007813,0.33007813,0.32226563,0.32226563,0.32226563,0.12207031,0.12207031,0.15966797,0.15966797,0.3671875,0.2055664,0.19726563,0.040039063,0.040039063,-0.03955078,-0.03955078,-0.05029297,-0.049804688,-0.10546875,-0.17089844,-0.30859375,-0.125,-0.125,-0.125,-0.140625,-0.140625,0.099609375,0.099609375,0.15722656,0.17529297,0.17529297,0.1743164,0.20361328,0.20361328,0.20361328,0.20361328,0.036621094,0.036621094,0.10888672,0.08251953,-0.11035156,-0.11035156,-0.11035156,-0.05908203,0.083984375,0.045898438,0.045898438,0.21728516,0.21728516,0.25634766,0.18847656,0.18847656,0.17089844,0.17089844,0.04248047,0.04248047,0.24072266,-0.15771484,-0.15771484,-0.0053710938,0.11328125,0.00390625,-0.034179688,0.08886719,-0.056640625,0.3828125,0.17236328,0.17236328,0.17236328,0.38867188,0.61376953,0.5161133,0.5161133,0.6503906,0.6118164,0.8256836,0.62841797,0.73046875,0.19580078,0.31152344,0.31152344,0.17089844,0.18603516,0.18603516,0.18603516,0.19335938,0.22216797,0.22216797,0.3095703,0.3959961,0.2397461,0.2397461,0.48583984,0.48583984,0.48583984,0.40527344,0.40527344,0.39990234,0.43310547,0.43310547,0.46679688,0.46679688,0.4399414,0.4399414,0.4638672,0.4638672,0.4638672,0.45263672,0.45263672,0.45654297,0.45654297,0.4243164,0.4243164,0.4243164,0.39257813,0.39257813,0.43896484,0.44335938,0.44335938,0.42333984,0.42333984,0.47851563,0.47851563,0.3803711,0.3803711,0.3803711,0.40429688,0.40429688,
triangle,0,1,0.46533203,0.46533203,0.46533203,0.44726563,0.44726563,0.44726563,0.43554688,0.43554688,0.43164063,0.43408203,0.44140625,0.44335938,0.4165039,0.41796875,0.41796875,0.43164063,0.45996094,0.46875,0.4814453,0.47998047,0.46728516,0.4741211,0.4794922,0.4794922,0.47802734,0.4477539,0.45361328,0.40185547,0.40185547,0.51464844,0.43701172,0.49658203,0.47802734,0.45410156,0.46777344,0.55810547,0.6166992,0.54833984,0.5415039,0.64697266,0.64697266,0.58447266,0.53125,0.6279297,0.54589844,0.46679688,0.3803711,0.3803711,0.46972656,0.46972656,0.46972656,0.54541016,0.54541016,0.38134766,0.38134766,0.4423828,0.4423828,0.4013672,0.4013672,0.47460938,0.4970703,0.46044922,0.4091797,0.4091797,0.29296875,0.32470703,0.32470703,0.38134766,0.38134766,0.28564453,0.28564453,0.28564453,0.20458984,0.16748047,0.057617188,0.057617188,0.057617188,0.0043945313,0.0043945313,-0.14355469,-0.14355469,-0.41015625,-0.41015625,-0.3828125,-0.05419922,-0.05419922,0.04345703,0.029785156,0.18164063,0.18164063,0.18164063,0.0029296875,0.0029296875,0.17382813,0.46191406,0.359375,0.16455078,0.13085938,0.35888672,0.35888672,0.13769531,0.13769531,0.13769531,0.35839844,0.35839844,0.19677734,0.38916016,0.38916016,0.38916016,0.38916016,0.45947266,0.3544922,0.2836914,0.2578125,4.8828125E-4,4.8828125E-4,4.8828125E-4,0.0146484375,0.0146484375,-0.08691406,0.08105469,-0.09814453,-0.015136719,-0.015136719,0.036621094,-0.087402344,0.11279297,0.21972656,0.21972656,0.26611328,0.21728516,0.18652344,0.18652344,0.39160156,0.42626953,0.42626953,0.41259766,0.41259766,0.4716797,0.4716797,0.4716797,0.37402344,0.3461914,0.4951172,0.4951172,0.4951172,0.5283203,0.5283203,0.42333984,0.42333984,0.43847656,0.39648438,0.39648438,0.39648438,0.39648438,0.34179688,0.34179688,0.33642578,0.37890625,0.37890625,
circleCw,0,1,0.3564453,0.3564453,0.36035156,0.36035156,0.36035156,0.36035156,0.36035156,0.3720703,0.3720703,0.3720703,0.3696289,0.3696289,0.3388672,0.3388672,0.36132813,0.36523438,0.35791016,0.35986328,0.3564453,0.36376953,0.36376953,0.3701172,0.3701172,0.3701172,0.36669922,0.36669922,0.3461914,0.35351563,0.37402344,0.37304688,0.3701172,0.38623047,0.43359375,0.4140625,0.38720703,0.4194336,0.4946289,0.5288086,0.55126953,0.5463867,0.5859375,0.65283203,0.71728516,0.73291016,0.69433594,0.671875,0.70410156,0.6694336,0.54296875,0.54296875,0.47851563,0.47851563,0.16601563,0.16601563,0.16601563,0.09277344,0.09277344,0.083496094,0.12402344,0.071777344,-0.013671875,-0.013671875,-0.078125,-0.078125,-0.07421875,-0.07421875,-0.07421875,-0.07421875,-0.07421875,-0.17333984,-0.17333984,-0.18457031,-0.18457031,-0.15429688,-0.09423828,-0.09033203,-0.15234375,-0.27783203,0.05419922,0.05419922,0.05419922,-0.23291016,-0.23291016,0.16796875,0.16796875,-0.068847656,-0.068847656,-0.068847656,0.23779297,0.23779297,-0.03857422,-0.03857422,-0.03857422,0.09423828,0.390625,0.3779297,0.20996094,0.37548828,0.37548828,0.37548828,0.33544922,0.33544922,0.30615234,0.44091797,0.44091797,0.36865234,0.36865234,0.30078125,0.21728516,0.31835938,0.31835938,0.31835938,0.2939453,0.2939453,0.24121094,0.24121094,0.18457031,0.18457031,0.18457031,0.12402344,0.12402344,0.111328125,0.111328125,0.06933594,0.07373047,0.060058594,0.28710938,0.28710938,0.36035156,0.36035156,0.36035156,0.39111328,0.38330078,0.35253906,0.37402344,0.33398438,0.33398438,0.33398438,0.38134766,0.39453125,0.37841797,0.37841797,0.39697266,0.43945313,0.42919922,0.42041016,0.42041016,0.43310547,0.4921875,0.4921875,0.4921875,0.4921875,0.47607422,0.49121094,
circleCcw,0,1,0.41210938,0.41210938,0.41210938,0.41259766,0.41259766,0.45751953,0.4658203,0.44970703,0.42871094,0.4189453,0.42382813,0.42382813,0.4140625,0.41455078,0.42285156,0.42138672,0.42626953,0.42041016,0.42041016,0.4111328,0.40966797,0.3569336,0.3569336,0.3569336,0.3359375,0.48828125,0.41796875,0.41845703,0.41845703,0.4321289,0.4321289,0.4321289,0.4189453,0.40576172,0.4658203,0.4658203,0.3618164,0.3618164,0.3984375,0.2783203,0.2783203,0.33447266,0.43847656,0.42333984,0.29736328,0.1430664,0.1430664,0.15966797,0.15966797,0.1015625,0.14648438,0.14648438,0.14648438,0.20800781,0.20800781,0.25,0.38916016,0.39501953,0.39501953,0.3334961,0.3334961,0.3334961,0.43798828,0.43798828,0.4267578,0.4790039,0.6586914,0.69677734,0.6069336,0.7597656,0.7597656,0.7597656,0.5292969,0.5292969,0.56884766,0.56884766,0.4111328,0.4111328,0.33789063,0.29785156,0.29785156,0.18359375,0.18359375,0.12402344,0.3540039,0.3540039,0.3359375,0.3359375,0.27001953,0.29248047,0.29248047,0.3540039,0.48339844,0.45117188,0.27001953,0.16748047,0.16748047,0.16748047,0.12939453,0.10644531,0.115722656,0.115722656,0.011230469,0.011230469,0.011230469,0.15771484,0.19238281,0.17333984,0.10449219,0.109375,0.075683594,0.06640625,0.19873047,0.19873047,0.15625,0.15625,0.15625,0.33496094,0.33496094,0.21044922,0.21044922,0.4663086,0.4663086,0.4663086,0.42529297,0.5263672,0.56884766,0.56884766,0.56884766,0.69970703,0.69970703,0.7558594,0.7558594,0.7006836,0.6855469,0.6855469,0.6323242,0.6323242,0.5551758,0.5551758,0.52734375,0.52734375,0.5024414,0.46875,0.4736328,0.4609375,0.41455078,0.41455078,0.40234375,0.47021484,0.4741211,0.4794922,0.45751953,0.46972656,0.48095703,
left,0,2,0.40429688,0.40429688,0.39160156,0.39160156,0.39160156,0.38671875,0.38671875,0.3881836,0.37890625,0.41308594,0.3798828,0.3798828,0.42089844,0.42089844,0.41259766,0.41259766,0.4038086,0.4038086,0.4091797,0.4033203,0.4033203,0.41992188,0.41992188,0.38476563,0.37597656,0.3881836,0.40234375,0.40234375,0.40722656,0.40722656,0.4194336,0.4189453,0.4111328,0.42773438,0.42773438,0.44677734,0.41455078,0.3876953,0.421875,0.421875,0.37304688,0.37304688,0.38085938,0.38085938,0.12792969,0.12792969,0.12792969,0.064453125,0.064453125,0.041015625,-0.13427734,-0.13427734,-0.1743164,-0.1743164,-0.109375,0.034179688,0.034179688,0.265625,0.265625,0.25732422,0.25732422,0.32470703,0.5957031,0.5957031,0.8105469,0.8105469,0.75097656,0.75097656,0.9663086,0.9663086,0.9663086,0.87890625,0.87890625,0.8276367,0.8276367,0.8149414,0.68896484,0.68896484,0.66064453,0.6035156,0.47851563,0.47851563,0.47460938,0.54345703,0.54345703,0.5996094,0.5996094,0.57470703,0.57470703,0.57910156,0.57910156,0.57910156,0.48632813,0.48632813,0.48632813,0.625,0.5371094,0.5644531,0.53271484,0.5307617,0.5678711,0.5678711,0.5605469,0.5366211,0.5722656,0.5722656,0.5463867,
right,0,2,0.44921875,0.44921875,0.44921875,0.4189453,0.4189453,0.48046875,0.48046875,0.4482422,0.4482422,0.4482422,0.4272461,0.41796875,0.41064453,0.41064453,0.4086914,0.42529297,0.4658203,0.47070313,0.45703125,0.43798828,0.4633789,0.4633789,0.4560547,0.4560547,0.44482422,0.44482422,0.45263672,0.45263672,0.45703125,0.4013672,0.4013672,0.4169922,0.47314453,0.43847656,0.43847656,0.43847656,0.45214844,0.45214844,0.4580078,0.44970703,0.46826172,0.48242188,0.48242188,0.484375,0.5307617,0.50634766,0.50634766,0.50634766,0.58154297,0.58154297,0.61328125,0.6357422,0.6894531,0.6894531,0.6855469,0.6665039,0.6269531,0.6269531,0.6269531,0.6723633,0.6879883,0.69384766,0.72509766,0.71435547,0.63671875,0.63623047,0.61376953,0.50341797,0.48876953,0.43652344,0.43652344,0.43652344,0.421875,0.17822266,-0.07080078,-0.07080078,-0.07080078,-0.07080078,-0.10205078,-0.2763672,-0.2763672,-0.2763672,-0.2763672,-0.27294922,-0.17578125,-0.17578125,-0.17578125,-0.19677734,-0.19726563,-0.1015625,-4.8828125E-4,-0.0126953125,-0.0126953125,0.08642578,0.14697266,0.14697266,0.14697266,0.14697266,0.115722656,0.09277344,0.14550781,0.1899414,0.16113281,0.1352539,0.18261719,0.17041016,0.17041016,0.17041016,0.23388672,0.18701172,0.18701172,0.18701172,0.23828125,0.23828125,
up,0,2,0.4008789,0.4008789,0.4008789,0.4008789,0.4008789,0.4091797,0.40283203,0.40625,0.4008789,0.42382813,0.41552734,0.3935547,0.38671875,0.4008789,0.4013672,0.41357422,0.41357422,0.41455078,0.39941406,0.40625,0.40625,0.3930664,0.3930664,0.3930664,0.40185547,0.40185547,0.38867188,0.38720703,0.39111328,0.40039063,0.3955078,0.38134766,0.38134766,0.37548828,0.37548828,0.37597656,0.39941406,0.39941406,0.3618164,0.3618164,0.47802734,0.6772461,0.6772461,0.7895508,1.0620117,0.8745117,0.8745117,0.8745117,0.81640625,0.81640625,0.65478516,0.65478516,0.5395508,0.4501953,0.33740234,0.23583984,0.10546875,-0.36816406,-0.36816406,-0.36816406,-0.5205078,-0.5205078,-0.092285156,-0.092285156,-0.14892578,-0.14892578,-0.18115234,-0.23583984,-0.34423828,-0.30273438,-0.30273438,-0.2475586,-0.24121094,-0.28857422,-0.1772461,-0.1772461,-0.13769531,-0.13769531,-0.043945313,-0.043945313,-0.043945313,-0.023925781,-0.023925781,-0.018554688,-0.030273438,0.0234375,-0.021484375,-0.021484375,-0.024414063,-0.024414063,0.0,0.0,0.0,
down,0,2,0.3959961,0.49609375,0.49609375,0.49609375,0.49609375,0.49609375,0.36621094,0.3876953,0.38867188,0.38867188,0.38867188,0.3828125,0.37597656,0.3803711,0.40478516,0.40478516,0.36035156,0.36035156,0.39160156,0.39160156,0.41015625,0.42919922,0.41259766,0.32666016,0.27685547,0.4267578,0.4267578,0.41845703,0.37060547,0.35205078,0.45361328,0.47607422,0.44482422,0.44482422,0.4038086,0.40185547,0.40185547,0.43945313,0.43945313,0.42285156,0.42285156,0.42285156,0.3955078,0.3955078,0.39990234,0.39990234,0.37451172,0.37451172,0.37451172,-0.0024414063,-0.0024414063,-0.24121094,-0.24121094,-0.16308594,-0.0034179688,-0.0034179688,0.053710938,0.053710938,0.6464844,0.6464844,0.7441406,0.7402344,0.7402344,0.45117188,0.45117188,0.3774414,0.3774414,0.3774414,-0.037109375,-0.037109375,0.9711914,0.9711914,0.2763672,0.2763672,0.19335938,-0.0034179688,-0.051757813,-0.036621094,-0.027832031,-0.027832031,-0.03515625,-0.032714844,-0.0048828125,-0.064453125,-0.12841797,-0.12841797,-0.12841797,-0.040527344,0.0048828125,-0.079589844,-0.079589844,-0.04345703,-0.04345703,0.0107421875,-0.027832031,-0.027832031,-0.067871094,-0.067871094,0.016113281,0.016113281,0.016113281,-0.0063476563,-0.014160156,-0.018554688,-0.018554688,-0.018554688,-0.024902344,-0.024902344,9.765625E-4,0.03564453,0.060058594,0.060058594,0.060058594,
square,0,2,0.47216797,0.47216797,0.47216797,0.47265625,0.47265625,0.46679688,0.46679688,0.4970703,0.4970703,0.6069336,0.6069336,0.6069336,0.5888672,0.5957031,0.5698242,0.5883789,0.5678711,0.6645508,0.6645508,0.6855469,0.6879883,0.6850586,0.73291016,0.73291016,0.66845703,0.66845703,0.50146484,0.50146484,0.50146484,0.53759766,0.53759766,0.4506836,0.38183594,0.38916016,0.26367188,0.26367188,0.25585938,0.25585938,0.3408203,0.3408203,0.3408203,0.30273438,0.30273438,0.421875,0.421875,0.38720703,0.37939453,0.35302734,0.38427734,0.38427734,0.29101563,0.24023438,0.2211914,0.15039063,0.07763672,0.15722656,0.15722656,0.15722656,0.15722656,0.43017578,0.43652344,0.4013672,0.4013672,0.4013672,0.51171875,0.51171875,0.37939453,0.20361328,0.20361328,0.32421875,0.32421875,0.25,0.041503906,-0.203125,-0.14648438,-0.14648438,-0.27197266,-0.27197266,-0.27197266,-0.4482422,-0.5161133,-0.36523438,-0.23144531,-0.15673828,-0.16503906,-0.14013672,0.07080078,0.07080078,0.19677734,0.16748047,0.16113281,0.16113281,0.16113281,0.15625,0.1953125,0.072753906,-0.0024414063,0.05029297,0.05029297,0.05029297,-0.03466797,-0.12841797,-0.064941406,-0.064941406,-0.091796875,-0.16845703,-0.12109375,0.052246094,-0.056152344,0.016113281,0.016113281,0.05029297,-0.015625,-0.055664063,0.14501953,0.14501953,0.13964844,-0.009765625,-0.072753906,0.107421875,0.107421875,0.037109375,0.11230469,-0.1328125,-0.022949219,0.12548828,-0.12597656,-0.12597656,0.14746094,0.14746094,0.15234375,0.34228516,0.34228516,0.5214844,0.5214844,0.5307617,0.67529297,0.67529297,0.8461914,0.8461914,0.69628906,0.69628906,0.69628906,0.625,0.5678711,0.49560547,0.43701172,0.2319336,0.2319336,0.2319336,0.19189453,0.16699219,0.19433594,0.19433594,0.10058594,0.10058594,0.10058594,0.15576172,0.15576172,0.26904297,0.33447266,0.33447266,0.33398438,0.33398438,0.45214844,0.45214844,0.4560547,0.4560547,0.4560547,0.4794922,0.4946289,0.46533203,0.45996094,0.46289063,0.46044922,0.4560547,0.4560547,0.4711914,0.48046875,0.48046875,0.48583984,0.4501953,0.4584961,0.47216797,0.47216797,0.47314453,0.4663086,0.4663086,0.48632813,0.48632813,
triangle,0,2,0.4946289,0.4946289,0.4946289,0.51708984,0.51708984,0.51220703,0.51220703,0.5629883,0.5292969,0.5292969,0.5048828,0.5048828,0.52197266,0.52197266,0.52197266,0.48095703,0.48095703,0.5004883,0.52734375,0.50390625,0.50390625,0.50390625,0.50878906,0.50878906,0.5292969,0.5292969,0.54052734,0.54052734,0.5239258,0.5239258,0.5239258,0.62353516,0.6381836,0.5102539,0.22705078,0.22705078,0.62646484,0.62646484,0.5522461,0.56591797,0.52246094,0.5517578,0.5517578,0.4638672,0.4638672,0.4638672,0.23925781,0.23925781,0.3564453,0.42041016,0.4736328,0.3408203,0.3408203,0.47070313,0.47070313,0.65771484,0.7480469,0.22314453,0.22314453,0.22314453,0.16894531,0.16894531,0.048339844,0.048339844,0.048339844,0.0390625,0.0390625,-0.140625,-0.140625,-0.171875,-0.171875,-0.171875,-0.09033203,-0.09033203,-0.07861328,-0.07861328,0.19580078,0.19580078,0.19580078,0.091796875,0.034179688,0.45214844,0.45214844,0.45214844,0.45214844,0.45214844,0.47265625,0.35888672,0.41552734,0.41552734,0.41552734,0.45751953,0.45751953,0.4814453,0.4814453,0.4399414,0.4399414,0.4399414,0.43652344,0.35839844,0.2319336,0.2319336,0.18554688,0.1459961,0.1459961,0.022460938,0.022460938,0.00390625,0.00390625,0.00390625,-0.036132813,0.021484375,-0.05517578,-0.06201172,-0.019042969,-0.019042969,0.05517578,0.14208984,0.24365234,0.26367188,0.2919922,0.34960938,0.39648438,0.39648438,0.43164063,0.43164063,0.42138672,0.44384766,0.44384766,0.453125,0.4501953,0.42382813,0.42382813,0.44628906,0.44628906,0.44628906,0.38671875,0.38671875,0.46191406,0.46191406,0.46191406,
circleCw,0,2,0.4975586,0.4975586,0.4975586,0.5004883,0.5004883,0.46972656,0.46972656,0.4814453,0.49609375,0.4946289,0.48583984,0.48583984,0.4892578,0.4892578,0.49365234,0.49365234,0.484375,0.49902344,0.49804688,0.4892578,0.4892578,0.4892578,0.48632813,0.5004883,0.48291016,0.48291016,0.49560547,0.49560547,0.49560547,0.4790039,0.46191406,0.4897461,0.4897461,0.5004883,0.5048828,0.5024414,0.5185547,0.5107422,0.62109375,0.62109375,0.62109375,0.5683594,0.58984375,0.63183594,0.54296875,0.5649414,0.5649414,0.5649414,0.5307617,0.4428711,0.4477539,0.4477539,0.48876953,0.45263672,0.45263672,0.4814453,0.4814453,0.47998047,0.5029297,0.49609375,0.5097656,0.55029297,0.6230469,0.5996094,0.6269531,0.7182617,0.9946289,1.0283203,1.0004883,1.0004883,1.0004883,0.3178711,0.3178711,0.3178711,0.3178711,0.3178711,0.05029297,-0.01953125,-0.01953125,-0.01953125,-0.09765625,-0.25830078,-0.30859375,-0.34033203,-0.34033203,-0.34033203,-0.34277344,-0.27001953,-0.27001953,-0.27001953,-0.27001953,-0.27001953,-0.2529297,-0.2919922,-0.2919922,-0.2919922,-0.2919922,-0.076660156,-0.076660156,0.04736328,0.12939453,0.12939453,0.12939453,0.31640625,0.31640625,0.2607422,0.2607422,0.2607422,0.2607422,0.2607422,0.27783203,0.27783203,0.27783203,0.27783203,0.27783203,0.16113281,0.16113281,0.16113281,0.110839844,0.1772461,0.29638672,0.2709961,0.18310547,0.18310547,0.08154297,0.08154297,0.08154297,0.08154297,0.0053710938,0.1484375,0.1484375,0.1484375,0.1484375,0.14892578,0.14892578,0.45703125,0.45703125,0.45703125,0.42578125,0.42578125,0.39892578,0.28808594,0.28808594,0.37451172,0.37451172,0.43896484,0.43896484,0.4248047,0.4248047,0.4248047,0.3881836,0.3881836,0.4267578,0.40527344,
circleCcw,0,2,0.46142578,0.46142578,0.46142578,0.45263672,0.45263672,0.44580078,0.44580078,0.4453125,0.49023438,0.49023438,0.42773438,0.42773438,0.45703125,0.45703125,0.43115234,0.43115234,0.43115234,0.4453125,0.4453125,0.45898438,0.40966797,0.40966797,0.42529297,0.4633789,0.46777344,0.44628906,0.4111328,0.42236328,0.46142578,0.4326172,0.4326172,0.42138672,0.4477539,0.4189453,0.42529297,0.4013672,0.38378906,0.3178711,0.36523438,0.4765625,0.43554688,0.40722656,0.40722656,0.3564453,0.24853516,0.18554688,0.2265625,0.123535156,0.123535156,0.123535156,0.36376953,0.36376953,0.17285156,0.17285156,0.17285156,0.34765625,0.34765625,0.37158203,0.36865234,0.25146484,0.25146484,0.25146484,0.2446289,0.2446289,0.22705078,0.22705078,0.22705078,0.4663086,0.7841797,0.28808594,0.28808594,0.51904297,0.51904297,0.61572266,0.61572266,0.30566406,0.30566406,0.30566406,0.41503906,0.016601563,0.016601563,-0.12548828,-9.765625E-4,0.24267578,0.24267578,0.24267578,0.265625,0.265625,0.12109375,0.12109375,-0.033203125,-0.033203125,-0.033203125,0.23583984,0.5576172,0.045898438,0.045898438,0.040039063,0.040039063,-0.021972656,-0.14746094,-0.14746094,-0.08154297,-0.060058594,-0.06982422,-0.0390625,-0.111816406,-0.13134766,-0.13134766,-0.23535156,-0.19238281,-0.0024414063,0.2133789,0.2133789,0.2548828,0.2548828,0.36767578,0.36767578,0.37353516,0.3095703,0.2944336,0.48583984,0.48583984,0.6074219,0.6074219,0.68359375,0.7324219,0.7324219,0.7680664,0.6435547,0.6435547,0.6435547,0.6435547,0.7241211,0.44189453,0.44091797,0.44091797,0.44091797,0.41455078,0.41455078,0.3486328,0.3486328,0.35839844,0.36279297,0.36279297,0.3310547,0.3310547,0.36083984,0.37402344,0.37402344,0.37402344,0.37402344,0.3798828,
left,0,3,0.40722656,0.40722656,0.43359375,0.43359375,0.43359375,0.43359375,0.43359375,0.43359375,0.3935547,0.3935547,0.3857422,0.3857422,0.3857422,0.38085938,0.38085938,0.37060547,0.37060547,0.37597656,0.37597656,0.37597656,0.359375,0.359375,0.38085938,0.38085938,0.3852539,0.3852539,0.3852539,0.35986328,0.34375,0.3959961,0.3959961,0.30908203,0.30908203,0.30908203,0.40771484,0.40771484,0.3544922,0.3544922,0.3544922,0.2915039,0.2915039,-0.013183594,-0.013183594,-0.021484375,0.2866211,0.2866211,9.765625E-4,9.765625E-4,-0.08984375,-0.08984375,0.06591797,0.06591797,0.06591797,-0.020507813,0.119628906,0.11425781,0.17089844,0.52490234,0.5214844,0.5214844,0.5029297,0.65478516,0.88916016,0.88916016,0.88916016,0.7133789,0.92871094,0.92871094,0.92871094,0.8105469,0.8105469,0.8105469,0.7753906,0.7753906,0.6933594,0.6933594,0.6933594,0.59228516,0.5566406,0.6411133,0.63134766,0.6328125,0.6328125,0.6328125,0.61865234,0.61865234,0.6455078,0.6455078,0.6123047,0.6123047,0.59521484,0.59521484,0.59521484,
right,0,3,0.49609375,0.49609375,0.48583984,0.48583984,0.5029297,0.5029297,0.4946289,0.49169922,0.49169922,0.4951172,0.4975586,0.49658203,0.49560547,0.49560547,0.50097656,0.50097656,0.49267578,0.49267578,0.51464844,0.49902344,0.4892578,0.50439453,0.51953125,0.51416016,0.51464844,0.5126953,0.51660156,0.5205078,0.5053711,0.5053711,0.5126953,0.5151367,0.5214844,0.5209961,0.5390625,0.71728516,0.71728516,0.71728516,0.93603516,0.9824219,0.984375,0.95947266,0.9536133,0.9916992,0.9916992,0.97753906,0.94677734,0.9194336,0.8515625,0.63134766,0.63134766,0.63134766,0.45214844,0.45214844,0.2524414,0.2524414,0.1328125,0.1328125,0.1328125,0.010253906,0.010253906,-0.14160156,-0.08984375,-0.08984375,-0.41357422,-0.41357422,-0.27246094,-0.27246094,-0.19921875,-0.12988281,-0.12988281,0.0,0.0,0.09765625,0.09765625,0.14453125,0.14941406,0.14941406,0.20947266,0.2685547,0.3100586,0.3100586,0.31591797,0.2919922,0.296875,0.32226563,0.32226563,0.32763672,0.3227539,0.3227539,0.359375,0.359375,0.3696289,0.3696289,0.3696289,0.32470703,0.32470703,0.28466797,0.28466797,
up,0,3,0.40185547,0.40185547,0.42773438,0.42773438,0.42773438,0.4321289,0.42041016,0.37402344,0.32910156,0.33398438,0.38720703,0.36035156,0.3413086,0.5131836,0.2084961,0.5258789,0.40478516,0.3461914,0.37646484,0.39013672,0.37841797,0.38134766,0.3720703,0.3720703,0.3720703,0.3828125,0.37841797,0.37402344,0.38671875,0.3955078,0.3955078,0.32421875,0.32421875,0.32421875,0.32421875,0.32421875,0.32421875,0.52246094,0.52246094,0.52246094,1.0249023,1.0249023,1.0854492,1.0097656,0.9267578,0.8466797,0.7709961,0.7558594,0.61621094,0.5385742,0.5258789,0.35595703,0.18408203,0.13232422,0.080078125,-0.08203125,-0.08203125,-0.018554688,-0.018554688,-0.018554688,-0.018554688,-0.18701172,-0.33984375,-0.43554688,-0.43554688,-0.43554688,-0.43554688,-0.40527344,-0.2607422,-0.2607422,-0.2607422,-0.2607422,-0.20605469,-0.1484375,-0.1484375,-0.1484375,0.0048828125,0.0048828125,0.0048828125,-0.051757813,-0.10498047,-0.04345703,-0.056152344,-0.07373047,-0.08935547,-0.053710938,-0.020507813,-0.020507813,
down,0,3,0.39453125,0.39453125,0.39453125,0.39453125,0.39453125,0.3852539,0.3852539,0.36914063,0.36328125,0.40283203,0.42089844,0.42089844,0.38916016,0.39990234,0.43310547,0.4116211,0.4116211,0.33935547,0.33935547,0.37646484,0.37646484,0.37646484,0.36669922,0.36669922,0.39404297,0.39404297,0.37109375,0.37109375,0.37158203,0.39648438,0.39648438,0.4399414,0.43847656,0.3828125,0.3828125,0.4453125,0.44140625,0.4375,0.4091797,0.4008789,0.38378906,0.26123047,0.28222656,0.28222656,0.28222656,0.14892578,0.14892578,-0.026367188,-0.1616211,-0.1616211,0.1328125,0.1328125,0.39013672,0.39013672,0.39013672,0.2397461,0.2397461,0.041503906,0.043945313,0.22802734,0.22802734,0.25927734,0.23583984,0.076171875,0.38671875,0.328125,0.328125,-0.17236328,-0.17236328,-0.1586914,0.0073242188,0.16992188,0.16992188,0.09716797,0.13330078,0.13330078,0.21923828,0.1743164,0.041015625,-0.04248047,0.0029296875,0.001953125,0.001953125,0.0034179688,0.021972656,-0.001953125,-0.06591797,-0.06591797,-0.06591797,-0.06591797,-0.037109375,-0.037109375,-0.037109375,0.09082031,0.09082031,0.12695313,0.05419922,
square,0,3,0.47314453,0.47314453,0.44970703,0.44970703,0.45410156,0.45410156,0.47998047,0.4794922,0.54296875,0.54296875,0.4736328,0.48339844,0.46484375,0.4658203,0.47705078,0.47705078,0.46728516,0.46484375,0.45654297,0.4428711,0.4399414,0.45410156,0.45898438,0.45410156,0.42626953,0.42626953,0.4399414,0.4399414,0.44921875,0.44628906,0.4609375,0.46142578,0.46142578,0.5048828,0.5595703,0.67578125,0.67578125,0.67578125,0.6855469,0.6923828,0.6958008,0.69921875,0.70214844,0.70214844,0.70214844,0.6933594,0.703125,0.61376953,0.61376953,0.61376953,0.5209961,0.5209961,0.46972656,0.46972656,0.46875,0.2939453,0.2939453,0.2890625,0.2890625,0.2993164,0.2993164,0.2993164,0.24365234,0.24365234,0.3857422,0.3857422,0.40527344,0.40527344,0.40527344,0.42089844,0.3798828,0.27197266,0.27197266,-0.0063476563,-0.0063476563,-0.008300781,0.11816406,0.11816406,0.18652344,0.18652344,0.063964844,0.28515625,0.20117188,0.24853516,0.24853516,0.2607422,0.34423828,0.088378906,0.088378906,0.088378906,0.12792969,0.12792969,-0.25976563,-0.25976563,-0.25976563,-0.29589844,-0.29589844,-0.16845703,-0.16845703,-0.36914063,-0.41748047,-0.41748047,-0.09863281,-0.043945313,-0.14794922,0.03955078,0.03955078,0.16113281,-0.013671875,-0.013671875,0.067871094,0.033203125,0.033203125,0.033203125,0.104003906,0.032714844,-0.059570313,-0.059570313,-0.23339844,-0.23339844,-0.23339844,-0.07910156,-0.07910156,0.061035156,-0.15771484,-0.1328125,0.14990234,0.14990234,0.059570313,0.059570313,0.2265625,0.2265625,-0.023925781,-0.023925781,-0.083984375,-0.083984375,-0.068359375,-0.15966797,-0.15966797,0.0024414063,0.0024414063,-0.1665039,0.140625,0.140625,0.140625,0.3701172,0.5024414,0.4790039,0.4790039,0.69091797,0.69091797,0.8022461,0.67041016,0.67041016,0.61279297,0.58496094,0.5258789,0.5258789,0.46679688,0.36621094,0.36621094,0.3310547,0.36035156,0.32080078,0.24609375,0.3100586,0.3100586,0.3100586,0.2163086,0.2163086,0.2163086,0.28515625,0.31445313,0.34033203,0.34228516,0.34228516,0.34228516,0.34228516,0.31201172,0.31201172,0.42041016,0.42041016,0.42041016,0.42041016,0.42041016,0.3930664,0.3852539,0.3881836,0.3881836,0.37695313,0.37695313,0.3251953,0.33007813,0.33007813,0.39941406,0.39941406,0.39941406,0.41259766,0.4321289,0.43017578,0.43017578,0.4111328,0.40820313,0.40820313,
triangle,0,3,0.4921875,0.4921875,0.4868164,0.4868164,0.4868164,0.4868164,0.4868164,0.49609375,0.49609375,0.47753906,0.47753906,0.47753906,0.4975586,0.4975586,0.50341797,0.4790039,0.4790039,0.52783203,0.52783203,0.5126953,0.4873047,0.48388672,0.48388672,0.52001953,0.5083008,0.49169922,0.48828125,0.5595703,0.48291016,0.48291016,0.48291016,0.48242188,0.4975586,0.4975586,0.4975586,0.4975586,0.5151367,0.5439453,0.5239258,0.5058594,0.5361328,0.5361328,0.5361328,0.66308594,0.70654297,0.53125,0.47753906,0.5180664,0.5336914,0.5336914,0.5673828,0.5708008,0.6015625,0.7050781,0.7167969,0.5673828,0.40771484,0.4350586,0.4350586,0.45166016,0.4399414,0.42333984,0.5175781,0.5175781,0.53271484,0.53271484,0.4404297,0.4272461,0.3017578,0.3017578,0.1796875,-0.08203125,-0.08203125,-0.1953125,-0.1953125,-0.1953125,-0.1538086,0.08642578,-0.016601563,-0.09423828,0.030273438,-0.016601563,-0.13916016,-0.08105469,0.03564453,0.087402344,0.020019531,0.020019531,0.13183594,0.19482422,0.24169922,0.24169922,0.41455078,0.41455078,0.41455078,0.41455078,0.41455078,0.3071289,0.07421875,0.07421875,0.16015625,0.16015625,0.18261719,0.18261719,0.16357422,0.16357422,0.16357422,0.33007813,0.33007813,0.28466797,0.3017578,0.37353516,0.37353516,0.05908203,0.05908203,0.05908203,-0.119140625,0.06689453,0.06689453,-0.08984375,-0.08984375,-0.018066406,0.017578125,0.029785156,-0.07324219,-0.07324219,-0.005859375,0.115722656,0.11279297,0.20703125,0.32861328,0.32861328,0.32861328,0.4033203,0.4033203,0.453125,0.453125,0.453125,0.43554688,0.44482422,0.44482422,0.44482422,0.41259766,0.4243164,0.4243164,0.4765625,0.4765625,0.5004883,0.47460938,0.4345703,0.4345703,0.53027344,0.53027344,0.53027344,0.47314453,0.47314453,
circleCw,0,3,0.41015625,0.35595703,0.35595703,0.35595703,0.35742188,0.35742188,0.35742188,0.36816406,0.39013672,0.4165039,0.39746094,0.3828125,0.3828125,0.3828125,0.3623047,0.2993164,0.2548828,0.37695313,0.43798828,0.4658203,0.44726563,0.4033203,0.3935547,0.3935547,0.38134766,0.38134766,0.4243164,0.4243164,0.45654297,0.39941406,0.37597656,0.40185547,0.4506836,0.53125,0.52685547,0.52685547,0.60253906,0.7211914,1.0097656,1.0097656,1.0097656,1.0297852,0.9399414,0.7578125,0.7578125,0.5839844,0.5839844,0.48535156,0.43115234,0.38964844,0.3671875,0.30664063,0.17919922,0.17919922,0.17919922,0.17919922,0.18554688,0.103515625,0.11669922,0.1171875,0.059570313,0.059570313,-0.01953125,-0.01953125,-0.06298828,-0.06298828,-0.06298828,-0.18945313,-0.18945313,-0.1274414,-0.08984375,-0.23095703,-0.23095703,-0.23095703,-0.2211914,-0.2211914,-0.31835938,-0.328125,-0.053710938,-0.053710938,-0.08105469,-0.27539063,-0.27539063,0.12597656,0.12597656,0.12597656,-0.18066406,-0.18066406,0.20947266,0.4404297,0.25390625,-0.34033203,-0.34033203,-0.115722656,-0.115722656,0.3725586,0.3725586,0.3725586,0.45751953,0.45751953,0.375,0.3310547,0.35498047,0.29589844,0.29589844,0.36914063,0.36914063,0.234375,0.234375,0.22509766,0.22509766,0.29882813,0.31201172,0.26757813,0.22509766,0.18359375,0.18359375,0.24804688,0.24804688,0.22558594,0.24609375,0.27197266,0.22363281,0.22363281,0.1640625,0.1640625,0.29882813,0.43310547,0.50341797,0.49121094,0.37402344,0.24023438,0.24023438,0.3359375,0.3359375,0.35595703,0.35595703,0.33642578,0.4091797,0.4091797,0.44335938,0.44335938,
circleCcw,0,3,0.43847656,0.43847656,0.43847656,0.4428711,0.4428711,0.42578125,0.42578125,0.42578125,0.44873047,0.44873047,0.42822266,0.41845703,0.4428711,0.453125,0.42626953,0.42626953,0.42626953,0.42138672,0.43652344,0.4555664,0.4477539,0.43066406,0.43066406,0.43408203,0.44335938,0.44335938,0.44335938,0.43554688,0.44189453,0.4482422,0.4482422,0.453125,0.43847656,0.42919922,0.45410156,0.44580078,0.44580078,0.44580078,0.44189453,0.46679688,0.52197266,0.46679688,0.46679688,0.44726563,0.4506836,0.4506836,0.38720703,0.38720703,0.38916016,0.38916016,0.36669922,0.37304688,0.43115234,0.3310547,0.3310547,0.26123047,0.26123047,0.2446289,0.2758789,0.3486328,0.3486328,0.26708984,0.23535156,0.23535156,0.2524414,0.2524414,0.2524414,0.3413086,0.3413086,0.36914063,0.34765625,0.34765625,0.3623047,0.4116211,0.47460938,0.5048828,0.37060547,0.32128906,0.32128906,0.53564453,0.53564453,0.42041016,0.29785156,0.31054688,0.4033203,0.4033203,0.37402344,0.18652344,0.23339844,0.31884766,0.27929688,0.0024414063,-0.03515625,0.029296875,0.029296875,-0.088378906,-0.088378906,-0.10888672,-0.03955078,-0.03955078,0.08251953,0.10986328,0.18652344,0.18652344,0.25683594,0.23242188,0.23486328,0.13134766,0.13134766,0.11621094,0.099609375,0.123535156,0.1381836,0.1381836,0.13574219,0.022460938,0.022460938,-0.045410156,0.08300781,0.08886719,0.08886719,0.0024414063,0.0024414063,0.0024414063,0.0107421875,0.0107421875,0.22998047,0.22998047,0.29003906,0.2368164,0.2368164,0.13623047,-0.020996094,0.071777344,0.071777344,0.071777344,0.17041016,0.17041016,0.13427734,0.13427734,0.4482422,0.4482422,0.4482422,0.28564453,0.28222656,0.2915039,0.50341797,0.6586914,0.7470703,0.7504883,0.54345703,0.5761719,0.6855469,0.7548828,0.75097656,0.71875,0.68896484,0.69921875,0.6611328,0.64746094,0.6489258,0.62939453,0.5395508,0.5395508,0.5385742,0.5385742,0.49560547,0.49560547,0.49560547,0.5703125,0.5703125,
left,0,4,0.38916016,0.38916016,0.38916016,0.38916016,0.40820313,0.41503906,0.41503906,0.38134766,0.375,0.38720703,0.38720703,0.3881836,0.40966797,0.39648438,0.38183594,0.41845703,0.41845703,0.41845703,0.3178711,0.3178711,0.3178711,0.46240234,0.40771484,0.40771484,0.38623047,0.38623047,0.4243164,0.4243164,0.38671875,0.38671875,0.4140625,0.43115234,0.4248047,0.38964844,0.39648438,0.4111328,0.4111328,0.4111328,0.39892578,0.39892578,0.39111328,0.39111328,0.30810547,0.24609375,0.24609375,0.24609375,0.24609375,0.1328125,0.1328125,0.14111328,0.068359375,0.068359375,-0.030761719,-0.030761719,0.09033203,0.09033203,0.09033203,0.20703125,0.11376953,0.11376953,0.203125,0.47070313,0.47070313,0.47070313,0.3100586,0.3569336,0.5004883,0.5004883,0.8515625,0.7402344,0.54248047,0.8388672,0.8388672,0.9458008,0.7583008,0.7583008,0.8828125,0.8828125,0.99560547,0.99560547,0.65283203,0.65283203,0.65283203,0.5629883,0.5629883,0.4560547,0.4560547,0.54785156,0.54785156,0.66259766,0.54785156,0.55371094,0.4633789,0.4633789,0.4633789,0.5058594,0.5551758,0.5551758,0.5551758,0.5551758,0.5551758,0.5551758,
right,0,4,0.41503906,0.41503906,0.41503906,0.4663086,0.4663086,0.4741211,0.4741211,0.46289063,0.46289063,0.46289063,0.4794922,0.4794922,0.4892578,0.46875,0.47070313,0.47753906,0.47753906,0.47607422,0.4741211,0.4794922,0.48339844,0.48486328,0.4794922,0.4975586,0.4975586,0.4975586,0.52685547,0.52685547,0.52685547,0.5649414,0.5649414,0.54003906,0.54003906,0.54003906,0.8256836,0.8256836,0.9550781,0.89941406,0.93359375,0.98779297,0.98779297,0.8120117,0.8120117,0.8461914,0.8823242,0.8041992,0.5053711,0.5053711,0.33007813,0.5576172,0.35205078,0.35205078,0.17773438,0.37158203,0.37158203,0.06689453,0.06689453,0.37304688,0.37304688,0.37304688,-0.30664063,-0.30664063,0.2861328,0.2861328,0.31103516,0.2944336,0.2944336,0.42089844,0.42089844,0.41748047,0.41748047,0.3720703,0.3720703,0.3720703,0.39208984,0.39208984,0.31884766,0.31884766,0.4111328,0.4111328,0.4111328,0.37451172,0.37451172,0.37451172,0.37451172,0.37451172,0.5004883,0.5004883,0.41748047,0.41748047,0.44140625,0.4272461,0.4272461,0.41992188,0.46240234,0.4111328,0.4111328,0.4111328,0.43652344,0.43652344,
up,0,4,0.40625,0.40625,0.38916016,0.38916016,0.38916016,0.45996094,0.49853516,0.46679688,0.3876953,0.3647461,0.37158203,0.37060547,0.4038086,0.4038086,0.42773438,0.42773438,0.42773438,0.40039063,0.3984375,0.39697266,0.39697266,0.39697266,0.41845703,0.4326172,0.4116211,0.3798828,0.3803711,0.3803711,0.3803711,0.40625,0.40625,0.3876953,0.41259766,0.37646484,0.37646484,0.38085938,0.39111328,0.36523438,0.32714844,0.28271484,0.46435547,0.5932617,0.5932617,0.91503906,0.91503906,0.9975586,0.9975586,0.9902344,0.9760742,0.76904297,0.64990234,0.6176758,0.54589844,0.46533203,0.32763672,0.049804688,0.049804688,-0.08691406,-0.08691406,-0.1665039,-0.24804688,-0.55566406,-0.13964844,-0.13964844,-0.19140625,-0.19140625,-0.37109375,-0.37109375,-0.37109375,-0.3828125,-0.3173828,-0.37304688,-0.37304688,-0.2861328,-0.24023438,-0.24023438,-0.13623047,-0.13623047,-0.08984375,-0.08984375,-0.12402344,-0.0859375,-0.0859375,-0.0859375,-0.0859375,0.0043945313,0.0043945313,0.0043945313,-0.030273438,0.0107421875,0.053710938,0.0146484375,-0.07080078,-9.765625E-4,-9.765625E-4,0.05810547,0.05810547,0.110839844,0.110839844,0.110839844,0.0546875,0.0546875,0.07080078,
down,0,4,0.46142578,0.46142578,0.46142578,0.45703125,0.45703125,0.484375,0.484375,0.40283203,0.43408203,0.47314453,0.47509766,0.47509766,0.4428711,0.43554688,0.41748047,0.47021484,0.47021484,0.42919922,0.5727539,0.40771484,0.328125,0.328125,0.44677734,0.43798828,0.45507813,0.45507813,0.4580078,0.4580078,0.4580078,0.4506836,0.4506836,0.47460938,0.47460938,0.453125,0.4580078,0.4580078,0.47021484,0.47021484,0.4711914,0.4423828,0.48876953,0.48876953,0.48876953,0.4580078,0.43164063,0.19335938,0.19335938,0.19335938,0.17675781,0.10595703,-0.19189453,-0.19189453,-0.0859375,-0.0859375,-0.0859375,0.021972656,0.021972656,0.18798828,0.4790039,0.57714844,0.57714844,0.57714844,0.57714844,0.57714844,0.024414063,0.024414063,0.024414063,0.33691406,0.33691406,-0.15283203,-0.15283203,-0.10205078,0.2397461,0.2397461,0.036621094,0.036621094,0.1640625,0.30029297,-0.076660156,-0.076660156,-0.076660156,0.016113281,0.016113281,-0.040039063,-0.040039063,-0.040039063,0.036621094,0.036621094,0.07324219,0.044921875,-0.038085938,-0.038085938,-0.038085938,0.080078125,0.080078125,0.083984375,0.083984375,0.14257813,0.14257813,0.14257813,0.1274414,0.13720703,
square,0,4,0.38671875,0.38671875,0.38671875,0.35302734,0.35302734,0.35742188,0.35742188,0.3803711,0.38330078,0.3828125,0.30078125,0.30078125,0.38330078,0.38330078,0.38330078,0.38476563,0.37597656,0.38378906,0.38427734,0.39892578,0.3955078,0.3852539,0.42333984,0.42333984,0.4326172,0.4326172,0.67871094,0.67871094,0.67871094,0.7138672,0.7001953,0.77734375,0.77734375,0.7338867,0.6635742,0.6899414,0.609375,0.609375,0.6245117,0.6245117,0.6245117,0.4921875,0.4921875,0.34521484,0.34521484,0.045898438,0.045898438,0.045898438,0.045898438,0.045898438,0.23095703,0.23095703,0.23095703,0.23095703,0.23095703,0.23095703,0.2421875,0.16259766,0.16259766,0.16259766,0.12451172,0.12451172,0.12451172,0.20410156,0.20410156,0.051757813,0.08935547,0.08935547,0.08935547,0.08935547,0.09716797,0.20800781,0.20800781,0.20800781,0.20800781,-0.12109375,-0.12109375,0.088378906,0.088378906,0.0034179688,-0.06542969,-0.16064453,-0.16064453,-0.16064453,-0.16064453,-0.7207031,-0.54052734,-0.54052734,-0.54052734,-0.54052734,-0.2133789,-0.2133789,-0.2133789,-0.2133789,-0.2133789,-0.015136719,0.21826172,-0.02734375,-0.02734375,-0.049804688,0.056640625,0.056640625,-0.04248047,-0.18066406,-0.059570313,-0.00390625,-0.043945313,-0.1352539,0.020996094,0.1015625,0.02734375,-0.03173828,-0.03173828,-0.03173828,-0.03173828,-0.18066406,-0.14453125,-0.064941406,-0.06933594,-0.0234375,0.10888672,0.10888672,0.095214844,0.18603516,0.43408203,0.43408203,0.43408203,0.54003906,0.54003906,0.54296875,0.54296875,0.47021484,0.4140625,0.43603516,0.35791016,0.35791016,0.21826172,0.21826172,0.20703125,0.17919922,0.17919922,0.21240234,0.23730469,0.18652344,0.18652344,0.18652344,0.23535156,0.23535156,0.29296875,0.29296875,0.38378906,0.4423828,0.46142578,0.4140625,0.41601563,0.44580078,0.49267578,0.47705078,0.45361328,0.45361328,0.49072266,0.49072266,0.46728516,0.46728516,0.46728516,0.44921875,0.44921875,0.47070313,0.47070313,0.44726563,0.42382813,0.42382813,0.35595703,0.35595703,0.47021484,0.47021484,0.47021484,
triangle,0,4,0.44726563,0.44726563,0.44726563,0.42773438,0.42773438,0.39746094,0.45410156,0.4506836,0.42236328,0.42236328,0.44677734,0.44677734,0.44482422,0.44873047,0.47070313,0.47070313,0.47070313,0.47070313,0.47070313,0.47021484,0.47021484,0.47021484,0.45361328,0.45361328,0.46435547,0.46435547,0.44384766,0.44384766,0.4453125,0.46826172,0.46435547,0.4584961,0.47265625,0.47265625,0.47265625,0.47265625,0.5444336,0.5444336,0.55810547,0.55810547,0.55810547,0.5727539,0.5908203,0.56152344,0.58496094,0.5161133,0.47998047,0.47998047,0.44433594,0.38427734,0.37158203,0.3359375,0.34716797,0.34326172,0.28271484,0.2446289,0.21777344,0.28027344,0.3540039,0.33251953,0.2421875,0.29589844,0.27490234,0.25830078,0.30859375,0.23828125,0.08886719,-0.0073242188,0.028808594,0.13378906,0.11816406,-0.0073242188,-0.13232422,-0.13476563,0.0625,-0.15771484,-0.37451172,-0.3461914,-0.40673828,-0.39453125,-0.3203125,-0.17822266,-0.22802734,-0.3310547,-0.3310547,-0.043945313,0.13574219,0.17578125,-0.024902344,0.033203125,0.05517578,0.05517578,-0.16113281,-0.049804688,0.115234375,0.18554688,0.17871094,0.2705078,0.07080078,-0.06933594,0.13183594,0.28564453,0.1586914,0.1586914,0.1586914,0.36035156,0.36035156,0.25341797,0.21972656,0.33203125,0.33203125,0.34423828,0.2685547,0.2685547,0.2783203,0.2783203,0.2705078,0.020507813,-0.028808594,0.009277344,-0.0068359375,-0.07373047,-0.07373047,-0.07373047,-0.12451172,-0.056640625,9.765625E-4,9.765625E-4,0.036132813,0.04736328,0.044921875,0.17236328,0.17236328,0.2626953,0.2626953,0.2626953,0.3623047,0.3623047,0.46484375,0.46484375,0.44091797,0.44091797,0.44091797,0.4272461,0.4272461,0.43310547,0.41601563,0.4560547,0.4560547,0.4560547,0.40576172,0.40576172,0.3935547,0.3935547,0.4375,0.4375,0.4375,
circleCw,0,4,0.4794922,0.48876953,0.5048828,0.53466797,0.4765625,0.49414063,0.4819336,0.5107422,0.5107422,0.51416016,0.52001953,0.5209961,0.50439453,0.49658203,0.4951172,0.4975586,0.4892578,0.47070313,0.47070313,0.47705078,0.47705078,0.47705078,0.46533203,0.46777344,0.45996094,0.47851563,0.49853516,0.46826172,0.4765625,0.49951172,0.4897461,0.49560547,0.5288086,0.53466797,0.55371094,0.5371094,0.55126953,0.6689453,0.7319336,0.7060547,0.69970703,0.7890625,0.7890625,0.7841797,0.80322266,0.80322266,0.7631836,0.8339844,0.8544922,0.5810547,0.21289063,0.21289063,0.1899414,0.2421875,0.26416016,0.16601563,0.16601563,0.110839844,0.110839844,0.12011719,0.12011719,0.12011719,-0.032714844,-0.032714844,-0.1875,-0.1875,-0.114746094,0.028808594,-0.14794922,-0.14794922,-0.14794922,-0.088378906,-0.088378906,-0.2475586,-0.2705078,-0.2705078,-0.15429688,-0.15429688,-0.33154297,-0.33154297,-0.33154297,-0.013183594,-0.013183594,0.12695313,0.12695313,0.12695313,-0.2397461,-0.2397461,-0.1274414,0.1796875,-0.12792969,0.10498047,0.10498047,0.1616211,-0.27294922,-0.12597656,0.3173828,0.009277344,0.009277344,0.0146484375,0.3178711,0.3178711,0.25390625,0.16845703,0.125,0.22460938,0.22460938,0.24902344,0.22949219,0.23046875,0.23046875,0.31054688,0.2421875,0.2421875,0.16796875,0.12646484,0.07421875,0.059570313,0.016113281,-0.04736328,-0.04736328,-0.055664063,-0.055664063,0.023925781,0.084472656,0.084472656,0.1875,0.1875,0.44189453,0.44189453,0.3071289,0.2788086,0.2788086,0.39208984,0.39208984,0.24560547,0.28710938,0.28710938,0.35351563,0.35351563,0.32714844,0.34033203,0.34521484,0.35595703,0.34375,0.32177734,0.3564453,0.46679688,0.46679688,0.38232422,0.2919922,0.31201172,0.37548828,0.375,
circleCcw,0,4,0.33642578,0.33642578,0.31835938,0.31835938,0.31835938,0.35009766,0.35009766,0.3100586,0.3100586,0.29736328,0.34423828,0.34423828,0.3334961,0.31982422,0.31982422,0.30078125,0.30078125,0.30078125,0.33398438,0.33496094,0.36767578,0.296875,0.296875,0.3095703,0.2758789,0.32080078,0.33691406,0.32128906,0.34179688,0.34179688,0.34179688,0.33642578,0.3125,0.3256836,0.3256836,0.2553711,0.2553711,0.2553711,0.20751953,0.20751953,0.10205078,0.10205078,0.001953125,0.001953125,0.001953125,0.040039063,0.040039063,0.029785156,0.025390625,0.07519531,0.09765625,0.09765625,0.09375,0.09375,0.14990234,0.23339844,0.23339844,0.21777344,0.21777344,0.48486328,0.48486328,0.48486328,0.5131836,0.6508789,0.6508789,0.5986328,0.5024414,0.3408203,0.375,0.375,0.375,0.016601563,0.016601563,0.30078125,0.20263672,0.20263672,0.041992188,0.041992188,-0.009765625,-0.009765625,-0.009765625,-0.036621094,-0.036621094,0.19482422,0.19482422,0.107910156,0.10986328,0.030761719,0.030761719,-0.1303711,-0.1303711,-0.1303711,-0.1303711,-0.1303711,-0.58935547,-0.58935547,-0.58935547,-0.58935547,-0.58935547,-0.26708984,0.125,0.30517578,0.26513672,0.16552734,-0.038085938,-0.032226563,0.016113281,0.17041016,0.20751953,0.42089844,0.48828125,0.4736328,0.4736328,0.7036133,0.7036133,0.7036133,0.7036133,0.7036133,0.70410156,0.6645508,0.6645508,0.6645508,0.6645508,0.45751953,0.45751953,0.45751953,0.45751953,0.45751953,0.45996094,0.3618164,0.3618164,0.40722656,0.40722656,0.40722656,0.37841797,0.40527344,0.40527344,0.40527344,0.3955078,0.4140625,0.3642578,0.3642578,0.3642578,0.4140625,0.36816406,0.36816406,0.4658203,0.4658203,0.4658203,
left,0,5,0.3310547,0.3310547,0.48828125,0.48828125,0.48828125,0.37841797,0.36767578,0.50341797,0.56689453,0.4609375,0.44189453,0.4375,0.4453125,0.4453125,0.4477539,0.4477539,0.44873047,0.4428711,0.4428711,0.4584961,0.4584961,0.4428711,0.4428711,0.4428711,0.45263672,0.45263672,0.4345703,0.42626953,0.42626953,0.42626953,0.45214844,0.3881836,0.3881836,0.38330078,0.35058594,0.35058594,0.3359375,0.29638672,0.09326172,0.122558594,0.122558594,0.122558594,0.017089844,0.0029296875,0.0029296875,-0.015136719,0.017089844,0.017089844,0.1459961,0.14892578,0.14892578,0.107910156,0.3852539,0.47851563,0.4584961,0.5595703,0.5595703,0.6196289,0.6074219,0.7236328,0.6660156,0.88671875,0.88671875,0.90234375,0.90234375,0.7426758,0.7426758,0.70654297,0.70654297,0.5527344,0.66845703,0.66845703,0.55810547,0.55810547,0.55810547,0.65283203,0.65283203,0.5654297,0.5654297,0.59765625,0.62158203,0.62158203,0.61279297,0.7265625,0.7265625,0.7265625,0.5727539,0.5727539,0.5727539,0.57714844,0.57714844,0.6191406,0.6191406,0.6191406,0.5991211,0.5991211,
right,0,5,0.3876953,0.3876953,0.3876953,0.38134766,0.38134766,0.32177734,0.38330078,0.4428711,0.39892578,0.3959961,0.40771484,0.40771484,0.40771484,0.4008789,0.4008789,0.33642578,0.36767578,0.47558594,0.47558594,0.47558594,0.43164063,0.41748047,0.42822266,0.34814453,0.34814453,0.34814453,0.34814453,0.33203125,0.33203125,0.4350586,0.4350586,0.4350586,0.42382813,0.47070313,0.47070313,0.47070313,0.47070313,0.47070313,0.47070313,0.49169922,0.58203125,0.58203125,0.58203125,0.8017578,1.0292969,0.9321289,0.9301758,0.84814453,0.8515625,0.64501953,0.64501953,0.64501953,0.64501953,0.64501953,0.50927734,0.19091797,0.19091797,0.19091797,0.19091797,0.18603516,0.038085938,0.038085938,0.038085938,0.038085938,0.001953125,-0.051757813,-0.051757813,-0.051757813,0.0029296875,0.0029296875,0.0029296875,-0.16601563,-0.15234375,0.025878906,0.022460938,0.022460938,0.052734375,0.052734375,0.052734375,0.052734375,0.10107422,0.10107422,0.10107422,0.10107422,0.10107422,0.13720703,0.13720703,0.15234375,0.15234375,0.15234375,0.15234375,0.15234375,0.15234375,
up,0,5,0.37158203,0.4038086,0.4038086,0.390625,0.390625,0.37890625,0.3930664,0.39404297,0.39404297,0.38964844,0.38720703,0.38720703,0.3881836,0.3881836,0.39404297,0.39404297,0.37890625,0.37890625,0.37890625,0.30029297,0.30029297,0.4296875,0.4296875,0.4296875,0.45263672,0.45263672,0.47265625,0.47265625,0.47265625,0.37451172,0.37451172,0.36328125,0.36328125,0.35595703,0.35595703,0.35595703,0.22216797,0.18701172,1.5083008,1.5083008,1.5083008,1.0634766,1.0634766,0.80078125,0.79296875,0.56152344,0.56152344,0.56152344,0.30810547,0.30810547,0.103515625,-0.071777344,-0.47607422,-0.25390625,-0.25390625,-0.20117188,-0.56933594,-0.22998047,-0.22998047,-0.28076172,-0.28076172,-0.28076172,-0.31396484,-0.27929688,-0.296875,-0.27539063,-0.2211914,-0.15283203,-0.15283203,-0.15185547,-0.11669922,-0.0078125,-0.0078125,-0.0078125,0.0625,-0.028320313,-0.028320313,-0.028320313,-0.061035156,-0.061035156,-0.061035156,0.011230469,0.011230469,-0.032226563,-0.032226563,-0.032226563,
down,0,5,0.35498047,0.35498047,0.37060547,0.37060547,0.3798828,0.36376953,0.3251953,0.34960938,0.3984375,0.3623047,0.3623047,0.3623047,0.48535156,0.48535156,0.27490234,0.30078125,0.38085938,0.36132813,0.37939453,0.35498047,0.35498047,0.34814453,0.359375,0.375,0.35351563,0.35351563,0.3618164,0.3618164,0.37646484,0.37646484,0.37646484,0.4633789,0.4633789,0.421875,0.37304688,0.091308594,0.091308594,-0.1328125,-0.25439453,-0.25732422,-0.16308594,0.05029297,0.23583984,0.40039063,0.32373047,0.104003906,0.14160156,-0.100097656,-0.100097656,-0.100097656,-0.067871094,0.21435547,0.3569336,0.4711914,0.17285156,0.17285156,-0.109375,-0.13476563,0.087890625,0.087890625,0.087890625,0.087890625,0.08154297,-0.056152344,-0.056152344,-0.056152344,-0.056152344,-0.026367188,-0.024414063,-0.03515625,-0.03857422,-0.059570313,-0.022949219,-0.022949219,-0.022949219,-0.022949219,-0.061035156,-0.061035156,
square,0,5,0.40234375,0.40234375,0.40234375,0.41992188,0.41992188,0.3959961,0.3959961,0.3959961,0.41503906,0.41308594,0.39501953,0.39501953,0.39892578,0.39892578,0.39892578,0.42626953,0.42626953,0.40820313,0.40820313,0.49072266,0.49072266,0.49072266,0.4116211,0.4116211,0.4038086,0.4038086,0.4038086,0.40185547,0.40185547,0.41503906,0.41015625,0.40527344,0.3955078,0.41503906,0.4116211,0.4116211,0.4116211,0.4116211,0.44384766,0.44384766,0.44384766,0.45214844,0.62890625,0.62890625,0.62890625,0.7866211,0.7866211,0.8491211,0.8491211,0.8491211,0.68896484,0.68896484,0.68896484,0.65625,0.65625,0.58203125,0.58203125,0.42285156,0.42285156,0.42285156,0.26123047,0.26123047,0.24072266,0.24072266,0.24072266,0.24072266,0.24072266,0.21875,0.21875,0.29736328,0.29736328,0.375,0.28173828,0.19873047,0.24072266,0.15722656,0.15722656,0.15722656,0.1772461,0.1772461,0.09863281,0.09863281,0.09863281,0.09863281,0.20800781,0.20800781,0.20800781,0.20800781,0.20800781,0.20800781,0.10205078,0.27441406,0.3100586,0.21386719,-0.11816406,-0.11816406,-0.11816406,-0.17333984,-0.17333984,-0.17333984,-0.33251953,-0.18017578,-0.18017578,-0.18017578,-0.18017578,-0.10205078,-0.17382813,-0.17382813,-0.17382813,-0.17382813,-0.20263672,-0.041503906,-0.041503906,-0.041503906,-0.041503906,-0.13085938,0.080078125,0.045410156,0.045410156,0.045410156,0.045410156,0.040039063,0.0034179688,0.0034179688,0.0034179688,0.052734375,0.052734375,0.052734375,0.052734375,0.052734375,0.060546875,0.060546875,-0.027832031,-0.06591797,0.06201172,0.06201172,0.06201172,0.06201172,0.0053710938,0.0053710938,0.5205078,0.5205078,0.5205078,0.5205078,0.5205078,0.5205078,0.3930664,0.3930664,0.3930664,0.3930664,0.3930664,0.2241211,0.2241211,0.2241211,0.2241211,0.2241211,0.2241211,0.1796875,0.1796875,0.1796875,0.25390625,0.25390625,0.34179688,0.4243164,0.3876953,0.3876953,0.3876953,0.3876953,0.40039063,0.40039063,0.40039063,0.40039063,0.40039063,0.40966797,0.40966797,0.40966797,0.40966797,0.40966797,0.40966797,0.3828125,0.44335938,0.44335938,0.4560547,0.44726563,0.40527344,0.35009766,0.39160156,0.39697266,
triangle,0,5,0.33935547,0.33935547,0.33935547,0.40429688,0.40429688,0.40234375,0.40234375,0.40234375,0.34814453,0.34814453,0.3623047,0.3623047,0.3359375,0.34716797,0.3408203,0.28320313,0.28320313,0.32910156,0.32910156,0.32910156,0.28857422,0.28857422,0.32617188,0.37548828,0.32080078,0.32226563,0.33642578,0.33642578,0.33642578,0.3154297,0.3154297,0.2915039,0.2915039,0.2915039,0.5126953,0.5126953,0.24609375,0.23876953,0.23876953,0.33984375,0.4790039,0.22607422,0.22607422,0.33691406,0.33691406,0.33691406,0.22753906,0.22753906,0.3725586,0.35351563,0.35351563,0.33789063,0.31640625,0.31640625,0.31640625,0.31347656,0.28466797,0.28027344,0.28759766,0.3154297,0.27978516,0.4086914,0.4086914,0.17236328,0.48046875,0.19042969,0.19042969,0.34375,0.34375,0.34375,0.34277344,0.34277344,0.3334961,0.3334961,0.34814453,0.34814453,0.34814453,0.3334961,0.3334961,0.34375,0.34375,0.34423828,0.34423828,0.34423828,0.31591797,0.31591797,0.32421875,0.37109375,0.37109375,0.35009766,0.35009766,0.38232422,0.38232422,0.38232422,0.38232422,0.38232422,0.40527344,0.40527344,0.40527344,0.40527344,0.37548828,0.40234375,0.55078125,0.56396484,0.55029297,0.56640625,0.56640625,0.43701172,0.43701172,0.37353516,0.3647461,0.3647461,0.35742188,0.36328125,0.36328125,0.359375,0.359375,0.36767578,0.36767578,0.18457031,0.18457031,0.23632813,0.2758789,0.24853516,0.14208984,0.14208984,0.16992188,0.15332031,0.15332031,0.15332031,0.15332031,0.03125,0.03125,0.03125,0.072753906,0.072753906,0.0048828125,-0.023925781,-0.34521484,-0.34521484,-0.34521484,-0.27685547,-0.27685547,-0.19873047,-0.19873047,-0.009277344,-0.009277344,-0.009277344,-0.088378906,-0.088378906,-0.16015625,-4.8828125E-4,-4.8828125E-4,0.23144531,0.2290039,0.04248047,0.04248047,0.26708984,0.26708984,0.064453125,0.20458984,0.20458984,0.15429688,0.017089844,0.15234375,0.15234375,0.15234375,-0.016113281,0.001953125,0.31982422,0.31982422,0.31982422,0.22851563,0.3330078,0.48242188,0.48242188,0.2915039,0.29736328,0.25830078,0.26660156,0.21679688,0.12011719,0.12011719,-0.11279297,-0.11279297,-0.10107422,0.021972656,0.021972656,-0.07324219,-0.12402344,-0.12402344,-0.076171875,0.0073242188,0.047851563,0.3125,0.3125,0.3125,0.3125,0.24804688,0.24804688,0.38476563,0.38476563,0.4477539,0.4477539,0.40771484,0.40576172,0.41064453,0.37841797,0.37841797,0.35009766,0.35009766,0.3955078,0.37646484,0.37646484,0.36035156,0.41308594,0.3696289,
circleCw,0,5,0.22851563,0.22851563,0.21679688,0.21679688,0.23339844,0.2084961,0.2084961,0.18017578,0.12646484,0.2553711,0.2553711,0.0078125,0.0078125,0.0078125,0.012207031,0.005859375,0.06298828,0.072753906,-0.024414063,-0.048339844,-0.017089844,0.048828125,-0.047851563,0.0126953125,0.0126953125,0.0126953125,-0.09326172,-0.09326172,0.021484375,0.021484375,-0.032226563,-0.032226563,-0.032226563,0.040039063,0.049316406,0.053710938,0.0043945313,0.119140625,0.2685547,0.2133789,0.22558594,0.22558594,0.29882813,0.072265625,0.072265625,0.072265625,0.072265625,0.18310547,0.18310547,0.3071289,0.3071289,0.3071289,0.25830078,0.38720703,0.38720703,0.34033203,0.4296875,0.4296875,0.4296875,0.3564453,0.3564453,0.4111328,0.4111328,0.4111328,0.37939453,0.37939453,0.35302734,0.35302734,0.32714844,0.32714844,0.32714844,0.35742188,0.328125,0.32763672,0.3461914,0.3461914,0.3359375,0.3359375,0.3774414,0.3774414,0.3408203,0.3046875,0.3671875,0.3671875,0.3671875,0.34960938,0.34960938,0.41796875,0.41796875,0.41796875,0.38867188,0.38867188,0.41210938,0.44580078,0.44580078,0.44580078,0.44580078,0.42041016,0.42041016,0.40820313,0.40820313,0.39892578,0.4404297,0.4404297,0.45361328,0.45361328,0.49658203,0.49658203,0.49658203,0.4921875,
circleCcw,0,5,0.33544922,0.3852539,0.35498047,0.3256836,0.3256836,0.3515625,0.31054688,0.32617188,0.36035156,0.39208984,0.3388672,0.3232422,0.3232422,0.3720703,0.3720703,0.38330078,0.38330078,0.38330078,0.4248047,0.40820313,0.44482422,0.4892578,0.4892578,0.4272461,0.3461914,0.32617188,0.35791016,0.39208984,0.3774414,0.3774414,0.3881836,0.4267578,0.4091797,0.4091797,0.4091797,0.41015625,0.41455078,0.44140625,0.44140625,0.37158203,0.29833984,0.34228516,0.3125,0.11425781,0.11425781,0.09716797,0.14648438,0.15771484,0.15771484,0.09326172,0.09375,0.14501953,0.09375,0.09375,0.083496094,0.1459961,0.26953125,0.21923828,0.18457031,0.1538086,0.23925781,0.2602539,0.2602539,0.33007813,0.33007813,0.39990234,0.39990234,0.56591797,0.16455078,0.16455078,0.6816406,0.6816406,0.60302734,0.20947266,0.4404297,0.4404297,0.4404297,-0.21826172,-0.21826172,-0.21826172,-0.029785156,-0.029785156,-0.08984375,-0.08984375,-0.08984375,-0.044433594,-0.044433594,0.14794922,0.14794922,-0.061523438,-0.061523438,0.20166016,0.3515625,0.17822266,-0.025390625,-0.025390625,0.0087890625,0.0087890625,0.0087890625,0.0048828125,0.0048828125,0.0068359375,-0.067871094,-0.04638672,0.03564453,0.10546875,-0.114746094,-0.114746094,0.05810547,0.05810547,0.05810547,0.09082031,0.09082031,0.095703125,0.095703125,0.13916016,0.20507813,0.15771484,0.31835938,0.31835938,0.34326172,0.42236328,0.42236328,0.49853516,0.49853516,0.51708984,0.51708984,0.61816406,0.7651367,0.7651367,0.7392578,0.7392578,0.6767578,0.6464844,0.6376953,0.56396484,0.56396484,0.56396484,0.56396484,0.56396484,0.56396484,0.43017578,0.43017578,0.43017578,0.47851563,0.47851563,0.4633789,
left,0,6,0.42138672,0.42138672,0.42138672,0.33789063,0.33789063,0.35888672,0.4272461,0.42529297,0.4272461,0.33007813,0.26953125,0.37939453,0.34472656,0.35009766,0.35009766,0.34765625,0.3564453,0.34570313,0.35839844,0.35839844,0.35302734,0.32617188,0.3466797,0.3466797,0.34423828,0.34423828,0.34423828,0.35107422,0.34277344,0.3540039,0.3540039,0.30029297,0.30029297,0.30029297,0.2578125,0.2578125,-0.052734375,-0.052734375,-0.052734375,-0.036132813,-0.036132813,-0.092285156,-0.092285156,-0.12939453,-0.12939453,-0.12939453,-0.1616211,-0.1616211,0.20410156,0.025878906,-0.06201172,0.25878906,0.25878906,0.07861328,0.07861328,0.38378906,0.7705078,0.4375,0.6958008,0.49169922,0.8730469,0.8730469,0.8725586,0.8725586,0.8725586,1.0117188,0.9082031,0.84277344,0.84277344,0.62402344,0.62402344,0.62402344,0.6582031,0.6582031,0.62646484,0.62646484,0.62646484,0.42333984,0.42333984,0.5214844,0.5214844,0.5263672,0.5263672,0.5263672,0.4892578,0.4892578,0.3955078,0.3955078,0.3955078,0.3955078,0.51171875,0.36621094,0.36621094,0.56152344,0.56152344,0.56152344,0.3984375,0.3984375,0.2836914,0.2836914,0.51220703,0.51220703,0.4584961,0.4584961,0.4584961,0.62597656,0.62597656,0.58251953,0.58251953,0.58251953,
right,0,6,0.48095703,0.48095703,0.49023438,0.49023438,0.49023438,0.49804688,0.4892578,0.46484375,0.46484375,0.48291016,0.4716797,0.4716797,0.46923828,0.46923828,0.46923828,0.46923828,0.46923828,0.4663086,0.4663086,0.4873047,0.4873047,0.4560547,0.4560547,0.4658203,0.47851563,0.47851563,0.46679688,0.4609375,0.48291016,0.4873047,0.4873047,0.49169922,0.49169922,0.48828125,0.53515625,0.53515625,0.5942383,0.5942383,0.6513672,0.70458984,0.6870117,0.6904297,0.6904297,0.8354492,0.89501953,0.7890625,0.7524414,0.7529297,0.7109375,0.7109375,0.53808594,0.53808594,0.3491211,0.3491211,0.3491211,0.36669922,0.36669922,0.19384766,0.19384766,0.24169922,0.24169922,0.24169922,0.1459961,0.1459961,0.15332031,0.024902344,0.36035156,0.36035156,0.36035156,0.08984375,0.08984375,0.2319336,0.2319336,0.24023438,0.24023438,0.24023438,0.28076172,0.28076172,0.31445313,0.35107422,0.35107422,0.29248047,0.29248047,0.32666016,0.35546875,0.33496094,0.33496094,0.33496094,0.3305664,0.3305664,0.3359375,0.38671875,0.34277344,0.34277344,0.34277344,0.35302734,0.35302734,0.34570313,0.36669922,0.37695313,0.34472656,0.3173828,
up,0,6,0.4189453,0.4189453,0.4189453,0.43847656,0.43847656,0.43945313,0.43945313,0.43945313,0.4321289,0.41259766,0.42285156,0.42285156,0.42333984,0.40429688,0.40429688,0.4248047,0.4248047,0.41455078,0.4140625,0.41992188,0.41748047,0.4248047,0.43408203,0.4169922,0.41210938,0.4111328,0.44091797,0.43945313,0.41308594,0.42822266,0.42822266,0.42333984,0.41845703,0.4248047,0.41259766,0.41259766,0.43603516,0.43896484,0.53759766,0.53759766,0.53759766,0.84472656,0.84472656,1.3759766,1.3759766,0.97509766,0.97509766,0.97509766,0.61621094,0.61621094,0.42871094,0.42871094,0.2993164,0.07128906,0.07128906,0.0043945313,0.0043945313,0.009277344,-0.071777344,-0.4765625,-0.14208984,-0.14208984,0.0146484375,-0.012207031,-0.13378906,-0.28271484,-0.28271484,-0.2993164,-0.2993164,-0.19140625,-0.19140625,0.036132813,0.036132813,0.036132813,0.064941406,0.09863281,0.06347656,0.06347656,0.06347656,0.15136719,0.11328125,0.13769531,0.13769531,0.1796875,0.14160156,0.076171875,0.063964844,0.1381836,0.15625,0.1274414,0.12402344,0.1484375,0.1459961,0.12841797,0.10498047,0.13964844,0.13964844,0.15234375,
down,0,6,0.33398438,0.33398438,0.33984375,0.33984375,0.33984375,0.35791016,0.35302734,0.32958984,0.32958984,0.35009766,0.34375,0.34375,0.3461914,0.3461914,0.39208984,0.39208984,0.39208984,0.3564453,0.3466797,0.4038086,0.4038086,0.42138672,0.35595703,0.31933594,0.37597656,0.39013672,0.3461914,0.34716797,0.34716797,0.3359375,0.3359375,0.33984375,0.35058594,0.31054688,0.31054688,0.31054688,0.3642578,0.3642578,0.30859375,0.30859375,0.13378906,0.13378906,0.08496094,-0.030273438,-0.030273438,0.037109375,0.037109375,0.203125,0.203125,0.203125,0.203125,0.203125,0.22851563,0.22851563,0.12402344,0.2548828,0.2548828,0.21533203,0.21533203,-0.23291016,-0.13916016,-0.13916016,0.45898438,0.45898438,0.69677734,0.0859375,-0.90625,-0.90625,-0.18798828,-0.041015625,-0.041015625,-0.18408203,-0.15722656,-0.15722656,0.044433594,0.044433594,0.05810547,0.05810547,-0.020019531,-0.020019531,-0.020019531,-0.09667969,-0.09667969,-0.09667969,-0.06982422,-0.057617188,-0.057617188,-0.057617188,0.04736328,0.06933594,-0.009765625,-0.009765625,-0.009765625,0.023925781,0.045898438,0.0234375,0.016601563,0.001953125,0.001953125,0.001953125,
square,0,6,0.42236328,0.42236328,0.42236328,0.42236328,0.3959961,0.4404297,0.4404297,0.45361328,0.47753906,0.45507813,0.39160156,0.39160156,0.38427734,0.38427734,0.40771484,0.42919922,0.42382813,0.41601563,0.4296875,0.43359375,0.4189453,0.3876953,0.40039063,0.42871094,0.47705078,0.47558594,0.43554688,0.39990234,0.4189453,0.45166016,0.46826172,0.44628906,0.44628906,0.49072266,0.49072266,0.50683594,0.5551758,0.6582031,0.79345703,0.78466797,0.6767578,0.6767578,0.7709961,0.7709961,0.7709961,0.6401367,0.6308594,0.53125,0.53125,0.47802734,0.44091797,0.33544922,0.26660156,0.26660156,0.2709961,0.09082031,0.09082031,0.1875,0.1875,0.23339844,0.23339844,0.21044922,0.28466797,0.28466797,0.2709961,0.2709961,0.052246094,0.052246094,0.052246094,0.052246094,0.06542969,0.140625,0.140625,0.21533203,0.2397461,0.03173828,0.1953125,0.1953125,0.1953125,0.11230469,0.07910156,0.07519531,0.07519531,0.03125,0.03125,0.03125,-0.079589844,-0.079589844,-0.375,-0.375,-0.43603516,-0.46777344,-0.46777344,-0.5180664,-0.5180664,-0.50341797,-0.22607422,-0.22607422,-0.35888672,-0.35888672,0.18115234,0.18115234,0.3334961,0.3334961,0.3334961,0.33398438,0.080078125,-0.11035156,-0.11035156,0.041503906,-0.2944336,-0.2944336,-0.29248047,-0.05078125,-0.0234375,-0.084472656,0.0126953125,0.0126953125,0.0126953125,-0.15771484,-0.15771484,-0.22705078,0.017578125,0.017578125,-0.1928711,-0.1928711,-0.15576172,-0.15576172,-0.07861328,-0.122558594,-0.122558594,0.01171875,-0.04736328,-0.049316406,0.014160156,0.32714844,0.32714844,0.32714844,0.40234375,0.40234375,0.5361328,0.5361328,0.5361328,0.55126953,0.55126953,0.55029297,0.55029297,0.35205078,0.35205078,0.35205078,0.33984375,0.28710938,0.15771484,0.15771484,0.1484375,0.18652344,0.18652344,0.17578125,0.18310547,0.27294922,0.27294922,0.25390625,0.2524414,0.26171875,0.33789063,0.35498047,0.35498047,0.3647461,0.40478516,0.4399414,0.4399414,0.41210938,0.42089844,0.44726563,0.47753906,0.45996094,
triangle,0,6,0.4970703,0.4970703,0.4970703,0.4711914,0.4711914,0.4555664,0.45947266,0.4736328,0.4892578,0.4892578,0.48388672,0.46728516,0.4716797,0.4716797,0.4716797,0.46289063,0.46289063,0.45458984,0.46142578,0.46484375,0.47216797,0.47216797,0.4663086,0.4663086,0.46875,0.46191406,0.47753906,0.48095703,0.48095703,0.4736328,0.4658203,0.46679688,0.4765625,0.4765625,0.48779297,0.5097656,0.54833984,0.54833984,0.47558594,0.47558594,0.47558594,0.55859375,0.55859375,0.5258789,0.5258789,0.5288086,0.5288086,0.5288086,0.5385742,0.5800781,0.53808594,0.52197266,0.5649414,0.5649414,0.54785156,0.38916016,0.38916016,0.33154297,0.33154297,0.33154297,0.25878906,0.27148438,0.2397461,0.21728516,0.25976563,0.2475586,0.20947266,0.11328125,0.11328125,0.15234375,0.15234375,0.16210938,0.12646484,-0.0048828125,-0.08642578,-0.08642578,-0.1928711,-0.1928711,-0.19189453,-0.18896484,-0.18896484,-0.42626953,-0.42626953,-0.21386719,-0.21386719,-0.21386719,-0.18408203,-0.18408203,-0.21191406,0.13427734,0.13427734,0.13427734,0.13427734,0.25097656,0.20117188,0.20117188,0.20117188,0.17871094,0.29541016,0.29541016,0.07373047,-0.008300781,0.107910156,0.24511719,0.24511719,0.37353516,0.37353516,0.2680664,0.32470703,0.24707031,0.24707031,0.18603516,0.15917969,0.09423828,0.08642578,0.08642578,0.08642578,0.08642578,0.06201172,0.06933594,0.020996094,-0.08203125,-0.075683594,0.02734375,0.02734375,0.02734375,0.020507813,0.040039063,0.16601563,0.2709961,0.296875,0.3930664,0.4243164,0.4243164,0.4243164,0.4243164,0.4243164,0.39892578,0.39892578,0.39892578,0.39892578,0.39892578,0.4189453,0.42138672,0.45654297,0.4633789,0.4501953,0.36523438,0.36523438,
circleCw,0,6,0.4267578,0.4267578,0.42285156,0.42285156,0.42285156,0.53466797,0.53466797,0.46777344,0.46777344,0.48388672,0.48388672,0.48388672,0.47460938,0.4790039,0.453125,0.43652344,0.45458984,0.45458984,0.45458984,0.4243164,0.4243164,0.42138672,0.41015625,0.4189453,0.4477539,0.43310547,0.43359375,0.45410156,0.41748047,0.48779297,0.48779297,0.48779297,0.4560547,0.47851563,0.47851563,0.5180664,0.53271484,0.7133789,0.7133789,0.7133789,0.7446289,0.7446289,0.7207031,0.7207031,0.6640625,0.64404297,0.6660156,0.51416016,0.51416016,0.51416016,0.43359375,0.43359375,0.36083984,0.36083984,0.22167969,0.22167969,0.22167969,0.14404297,0.14404297,0.09765625,0.06738281,-0.21484375,-0.21484375,-0.21484375,-0.42285156,-0.35986328,0.31933594,0.31933594,0.31933594,0.05078125,-0.16894531,-0.17041016,-0.17041016,-0.16796875,-0.16796875,-0.16796875,-0.20751953,-0.14355469,-0.16210938,-0.25683594,-0.17773438,-0.17773438,-0.17773438,-0.08300781,-0.08300781,-0.072265625,-0.072265625,-0.06982422,-0.06982422,-0.06982422,-0.08300781,-0.08300781,0.11816406,0.11816406,0.021484375,-0.17578125,-0.17578125,0.14404297,0.14404297,-0.08642578,-0.017578125,-0.017578125,0.09423828,0.09423828,0.068359375,0.087402344,0.24023438,0.24023438,0.24023438,0.2788086,0.21484375,0.35351563,0.35351563,0.35351563,0.2529297,0.2529297,0.28076172,0.31689453,0.20019531,0.20019531,0.1928711,0.1899414,0.23730469,0.20361328,0.21240234,0.24853516,0.24853516,0.24853516,0.24853516,0.24853516,0.31396484,0.31396484,0.2524414,0.27783203,0.27783203,0.34179688,0.34179688,0.31640625,0.31640625,0.31640625,0.2866211,0.2866211,0.38867188,0.38867188,0.3017578,0.3017578,0.31103516,0.3642578,0.3642578,0.41308594,0.41308594,0.37939453,0.37939453,0.3540039,0.39892578,0.34472656,0.4165039,0.4165039,0.38671875,0.31298828,0.31298828,0.34960938,0.37646484,
circleCcw,0,6,0.38867188,0.38867188,0.38427734,0.38427734,0.39794922,0.39794922,0.39794922,0.36376953,0.36376953,0.38476563,0.40478516,0.37695313,0.37695313,0.37695313,0.3720703,0.35595703,0.39794922,0.39794922,0.42578125,0.36132813,0.36132813,0.3720703,0.4111328,0.41455078,0.39257813,0.39257813,0.38720703,0.41064453,0.421875,0.40527344,0.41455078,0.42382813,0.42382813,0.39160156,0.37060547,0.46289063,0.46289063,0.38330078,0.23486328,0.23486328,0.31298828,0.31298828,0.14697266,0.13574219,0.13574219,0.18115234,0.18115234,0.171875,0.171875,0.19580078,0.19580078,0.19580078,0.1899414,0.1899414,0.28857422,0.28857422,0.25830078,0.25830078,0.25830078,0.30664063,0.38867188,0.2734375,0.2734375,0.2734375,0.3095703,0.3095703,0.5605469,0.5605469,0.42236328,0.42236328,0.42236328,0.42822266,0.21289063,0.21289063,0.21289063,0.18652344,0.18652344,0.14160156,0.013671875,0.013671875,0.020507813,0.057128906,0.016601563,0.0107421875,0.0107421875,0.041015625,0.0390625,0.03173828,0.07373047,0.07373047,-0.05078125,-0.10888672,-0.10888672,-0.10888672,-0.076171875,-0.076171875,-0.076171875,-0.091796875,-0.091796875,-0.07861328,-0.099609375,-0.18945313,-0.18945313,-0.18945313,-0.068359375,-0.068359375,-0.09814453,-0.09814453,-0.023925781,0.038085938,-0.033691406,-0.018066406,-0.018066406,0.03564453,0.083984375,0.083984375,0.22607422,0.22607422,0.2475586,0.2475586,0.3046875,0.4609375,0.4609375,0.4609375,0.4609375,0.5390625,0.5371094,0.5371094,0.5371094,0.5371094,0.5786133,0.5566406,0.5566406,0.5151367,0.50683594,0.5175781,0.5029297,0.5029297,0.5029297,0.4633789,0.46191406,0.41357422,0.4272461,0.3774414,0.3774414,0.3774414,
left,0,7,0.40625,0.40625,0.43798828,0.43798828,0.41796875,0.41796875,0.41308594,0.42236328,0.4423828,0.44189453,0.44189453,0.43115234,0.42529297,0.41748047,0.41015625,0.41015625,0.41503906,0.41503906,0.4140625,0.4038086,0.4038086,0.390625,0.40771484,0.43017578,0.4169922,0.4086914,0.42089844,0.42089844,0.39892578,0.39892578,0.41503906,0.41357422,0.41357422,0.38916016,0.38916016,0.3984375,0.37939453,0.33789063,0.33251953,0.28027344,0.22460938,0.19921875,0.06201172,0.06201172,0.06201172,0.052246094,0.052246094,-0.001953125,-0.001953125,-0.041992188,-0.053222656,-0.053222656,-0.052246094,0.016601563,0.06542969,0.09765625,0.23291016,0.23291016,0.23291016,0.25195313,0.2788086,0.5576172,0.5576172,0.5576172,0.47509766,0.5493164,0.9838867,0.9838867,0.84472656,0.84472656,0.84472656,0.78466797,0.78466797,0.7861328,0.7861328,0.5834961,0.5834961,0.5834961,0.51123047,0.51123047,0.51123047,0.51123047,0.51123047,0.5048828,0.5048828,0.4296875,0.42529297,0.4560547,0.4560547,0.4560547,0.45898438,0.46875,0.48339844,0.51220703,
right,0,7,0.44726563,0.44726563,0.47509766,0.47509766,0.47509766,0.44628906,0.44628906,0.44873047,0.44628906,0.42578125,0.44628906,0.45947266,0.45898438,0.45898438,0.45703125,0.49560547,0.49560547,0.4711914,0.4716797,0.4765625,0.47265625,0.4741211,0.4741211,0.4736328,0.4814453,0.4814453,0.47216797,0.47216797,0.45947266,0.48535156,0.48535156,0.4765625,0.47753906,0.4638672,0.4638672,0.4921875,0.4921875,0.4921875,0.5317383,0.5317383,0.6958008,0.6958008,0.8852539,0.8852539,0.8852539,0.9584961,0.9584961,0.81933594,0.81933594,0.81933594,0.77783203,0.77783203,0.7338867,0.57666016,0.41748047,0.41748047,0.36572266,0.32177734,0.38134766,0.24023438,0.06201172,0.001953125,0.001953125,0.001953125,-0.19384766,-0.19384766,-0.057128906,-0.057128906,-0.057128906,-0.16845703,-0.16845703,-0.08544922,-0.08544922,-0.30273438,-0.30273438,-0.06298828,-0.06298828,-0.06298828,-0.0029296875,-0.05810547,-0.067871094,0.07080078,0.07080078,0.03515625,0.044433594,0.13378906,0.13378906,0.13378906,0.1171875,0.1171875,0.15039063,0.111816406,0.111816406,0.083984375,0.091308594,0.16113281,0.16113281,0.16113281,0.15966797,0.15966797,0.17138672,0.17773438,
up,0,7,0.41015625,0.41015625,0.41015625,0.40527344,0.40527344,0.4091797,0.4091797,0.42041016,0.4165039,0.4165039,0.38720703,0.38720703,0.42089844,0.42089844,0.42089844,0.40722656,0.38623047,0.4140625,0.4140625,0.39746094,0.38964844,0.38964844,0.4140625,0.4140625,0.41357422,0.41357422,0.37695313,0.3623047,0.4033203,0.4033203,0.4033203,0.44677734,0.44677734,0.6147461,0.57470703,0.6484375,1.046875,1.046875,0.72998047,0.72998047,0.72998047,0.79003906,0.79003906,0.64697266,0.64697266,0.43164063,0.43164063,0.37646484,0.4189453,0.4189453,0.072265625,0.072265625,-0.63671875,-0.63671875,-0.63671875,-0.48583984,-0.1899414,-0.014160156,-0.038085938,-0.2084961,-0.36865234,-0.4506836,-0.46484375,-0.44482422,-0.40039063,-0.40039063,-0.41357422,-0.34814453,-0.34814453,-0.2211914,-0.24951172,-0.23632813,-0.23632813,-0.2626953,-0.27392578,-0.27392578,-0.16357422,-0.16357422,-0.16357422,-0.17382813,-0.17382813,-0.16259766,-0.16259766,-0.10498047,-0.10498047,-0.10498047,-0.09277344,-0.115234375,
down,0,7,0.4267578,0.4267578,0.39697266,0.39697266,0.41308594,0.41308594,0.41308594,0.4345703,0.4345703,0.40576172,0.39111328,0.41796875,0.39990234,0.39990234,0.35888672,0.35888672,0.37109375,0.37109375,0.115234375,0.115234375,0.115234375,-0.083984375,-0.083984375,-0.13134766,-0.17626953,-0.1430664,-0.06542969,0.016601563,0.04736328,-0.0073242188,0.17480469,0.44140625,0.44140625,0.14892578,0.14892578,0.1821289,0.5053711,-0.16357422,-0.16357422,-0.16357422,0.034179688,0.034179688,0.115722656,0.10498047,0.060058594,0.068359375,0.072753906,0.03173828,-0.028808594,-0.0146484375,0.014160156,0.038085938,-9.765625E-4,-9.765625E-4,0.0107421875,0.0546875,0.064453125,0.049804688,0.049804688,0.04345703,0.04345703,0.05517578,0.05517578,0.05517578,0.05419922,0.057617188,0.021972656,0.021972656,0.033203125,0.041503906,0.041503906,0.037109375,0.037109375,0.032714844,0.020019531,0.0078125,0.0014648438,0.0024414063,-9.765625E-4,-9.765625E-4,0.0034179688,0.0034179688,0.017578125,0.022460938,0.022460938,
square,0,7,0.40527344,0.40527344,0.40527344,0.40527344,0.48339844,0.48339844,0.43310547,0.43310547,0.43310547,0.44873047,0.44873047,0.44189453,0.44189453,0.42822266,0.44628906,0.44628906,0.44482422,0.44482422,0.4321289,0.43603516,0.4580078,0.45361328,0.43652344,0.45117188,0.45117188,0.42529297,0.42529297,0.42529297,0.4584961,0.4584961,0.45947266,0.44335938,0.4326172,0.40576172,0.4091797,0.42333984,0.44726563,0.42773438,0.43603516,0.47070313,0.5083008,0.5083008,0.7158203,0.7158203,0.7915039,0.7446289,0.7446289,0.69677734,0.69677734,0.6923828,0.6923828,0.5239258,0.5239258,0.5239258,0.49316406,0.49316406,0.42919922,0.42919922,0.33154297,0.33154297,0.33154297,0.17626953,0.17626953,0.20019531,0.20019531,0.19824219,0.19335938,0.19335938,0.19091797,0.19091797,0.18603516,0.18603516,0.12988281,0.14111328,0.14111328,0.27246094,0.18798828,0.14257813,0.14257813,-0.04638672,0.35888672,0.35888672,0.41503906,0.28759766,0.28759766,0.1743164,0.1743164,0.10888672,0.10888672,0.0087890625,-0.1743164,-0.1743164,-0.2685547,-0.2685547,-0.14208984,-0.25830078,-0.35009766,-0.3696289,-0.3696289,-0.3696289,-0.4194336,-0.5625,-0.5625,-0.059570313,-0.059570313,-0.059570313,-0.044921875,0.025390625,0.049804688,0.049804688,0.049804688,0.0029296875,0.06591797,0.15673828,0.15673828,0.06591797,0.040039063,0.040039063,-0.040039063,-0.040039063,-0.033203125,-0.021484375,-0.107910156,-0.16210938,-0.16210938,0.024902344,0.024902344,-0.06738281,-0.107421875,-0.05517578,-0.05517578,-0.05517578,-0.0073242188,-0.0073242188,-0.022460938,-0.03466797,-0.03466797,0.0053710938,0.11621094,0.08251953,0.08251953,0.12011719,0.16113281,0.16113281,0.38623047,0.43408203,0.4189453,0.43408203,0.42041016,0.42041016,0.42041016,0.42041016,0.42041016,0.42822266,0.42822266,0.33251953,0.37353516,0.37353516,0.22460938,0.22460938,0.25830078,0.25830078,0.25830078,0.27734375,0.27734375,0.22753906,0.17529297,0.17529297,0.22070313,0.22070313,0.27978516,0.32080078,0.32080078,0.3359375,0.3359375,0.34570313,0.34570313,0.34570313,0.42236328,0.42236328,0.42138672,0.42138672,0.45996094,0.45996094,0.46826172,0.4482422,0.4482422,0.43164063,0.43164063,0.38378906,0.38378906,0.38378906,0.40673828,0.40673828,0.40283203,0.40283203,0.40283203,
triangle,0,7,0.49902344,0.49902344,0.49169922,0.49169922,0.49169922,0.48779297,0.48779297,0.48486328,0.48486328,0.49853516,0.4946289,0.4946289,0.5048828,0.5048828,0.5029297,0.4897461,0.48291016,0.49853516,0.50634766,0.48779297,0.48779297,0.50097656,0.50097656,0.5288086,0.5058594,0.48632813,0.49072266,0.51416016,0.51416016,0.51416016,0.51416016,0.49267578,0.5019531,0.55126953,0.55126953,0.5522461,0.56640625,0.5488281,0.5649414,0.5151367,0.47021484,0.47021484,0.4970703,0.49804688,0.4560547,0.41210938,0.41210938,0.40771484,0.40771484,0.3930664,0.3930664,0.3930664,0.36132813,0.3022461,0.24267578,0.24267578,0.24267578,0.3154297,0.3154297,0.28515625,0.2241211,0.18798828,0.23291016,0.23291016,0.14794922,0.14794922,0.080566406,0.080566406,0.04296875,0.04296875,0.04296875,-0.13867188,-0.13867188,-0.16015625,-0.16015625,-0.095703125,-0.1743164,-0.1743164,-0.17675781,-0.17675781,-0.15332031,-0.28320313,-0.28320313,-0.3149414,-0.390625,-0.19189453,-0.19189453,-0.08496094,-0.08496094,-0.15625,0.057617188,0.057617188,0.1616211,0.1616211,0.1303711,0.1303711,0.1303711,0.2685547,0.119140625,0.11328125,0.12451172,0.12451172,0.114746094,0.114746094,0.2265625,0.2265625,0.26660156,0.22753906,0.18798828,0.15820313,0.15820313,0.13427734,0.14111328,0.047851563,0.047851563,-0.0063476563,-0.018554688,-0.018554688,-0.012207031,-0.018554688,-0.018554688,-0.0068359375,-0.0068359375,0.0068359375,0.0068359375,0.036132813,0.036621094,0.036621094,0.021972656,0.021972656,0.25976563,0.25976563,0.29589844,0.29589844,0.2915039,0.41064453,0.41064453,0.42626953,0.40283203,0.37597656,0.3857422,0.3857422,0.4008789,0.4008789,0.3857422,0.41796875,0.3798828,0.3798828,0.3798828,0.3935547,0.3935547,0.39746094,0.39746094,0.39746094,0.4033203,0.4033203,
circleCw,0,7,0.52197266,0.52197266,0.52197266,0.52197266,0.52197266,0.5234375,0.5234375,0.51416016,0.51416016,0.5449219,0.5498047,0.5498047,0.5371094,0.5371094,0.5336914,0.53027344,0.5410156,0.5410156,0.5410156,0.5366211,0.5366211,0.5341797,0.5341797,0.5205078,0.52685547,0.52685547,0.54296875,0.5395508,0.5390625,0.5541992,0.5644531,0.6347656,0.6347656,0.74365234,0.74365234,0.7397461,0.75439453,0.75439453,0.83691406,0.83691406,0.8222656,0.78515625,0.6274414,0.6274414,0.6274414,0.5498047,0.5498047,0.49658203,0.46484375,0.453125,0.42822266,0.42822266,0.3852539,0.3852539,0.33154297,0.33154297,0.33154297,0.2709961,0.2709961,0.22460938,0.22460938,0.19189453,0.15820313,0.15820313,0.067871094,0.067871094,0.0703125,0.0703125,0.0703125,0.12060547,0.12060547,0.041992188,0.041992188,0.025878906,0.025878906,0.025878906,-0.13769531,-0.13769531,-0.0029296875,-0.0029296875,-0.20605469,-0.20605469,-0.20605469,-0.18066406,0.028808594,0.12646484,0.12646484,-0.076171875,-0.076171875,-0.076171875,0.22802734,0.22802734,-0.057128906,0.096191406,0.096191406,-0.26416016,-0.26416016,-0.19873047,-0.19873047,0.32763672,0.32763672,0.32763672,0.23925781,0.20361328,0.22509766,0.2421875,0.32226563,0.32226563,0.32226563,0.34326172,0.34326172,0.4169922,0.3310547,0.3310547,0.40722656,0.40722656,0.33398438,0.33398438,0.296875,0.296875,0.296875,0.3359375,0.3359375,0.38720703,0.3203125,0.20263672,0.20263672,0.20263672,-0.0053710938,-0.0053710938,-0.078125,-0.078125,-0.078125,-0.08886719,-0.009765625,-0.041503906,0.12988281,0.27392578,0.27392578,0.2861328,0.34277344,0.34277344,0.2265625,0.2265625,0.30029297,0.30029297,0.30029297,0.32617188,0.32617188,0.31396484,0.31396484,0.31396484,0.2783203,0.2783203,0.3095703,0.3095703,0.33642578,0.33642578,0.3828125,0.40966797,0.43310547,0.40283203,0.40283203,0.38330078,0.38330078,0.39404297,
circleCcw,0,7,0.44335938,0.44335938,0.44335938,0.4399414,0.4399414,0.41845703,0.41845703,0.4267578,0.41601563,0.41601563,0.47558594,0.47558594,0.36035156,0.3935547,0.3935547,0.44921875,0.44921875,0.4091797,0.42138672,0.4482422,0.4375,0.4350586,0.44628906,0.4165039,0.4555664,0.4580078,0.41601563,0.41601563,0.47216797,0.4716797,0.4165039,0.40576172,0.44335938,0.45361328,0.44580078,0.41748047,0.40283203,0.4296875,0.45214844,0.45117188,0.4501953,0.46826172,0.46191406,0.44628906,0.43359375,0.36865234,0.36865234,0.36865234,0.17529297,0.08935547,0.13476563,0.13476563,0.13476563,0.13476563,0.13476563,0.119628906,0.16210938,0.20898438,0.20898438,0.23535156,0.30322266,0.30322266,0.29052734,0.29052734,0.2783203,0.2783203,0.2783203,0.36669922,0.36669922,0.38183594,0.3408203,0.3173828,0.3173828,0.39160156,0.44970703,0.47314453,0.32910156,0.54248047,0.54248047,0.50683594,0.50683594,0.34521484,0.34521484,0.35009766,0.30859375,0.30859375,0.088378906,0.026367188,0.071777344,0.071777344,0.12109375,0.12109375,0.12109375,0.025390625,0.025390625,0.1508789,0.1508789,0.25048828,0.25048828,0.25048828,0.19873047,0.19873047,0.103515625,0.06591797,0.06591797,0.15429688,0.123535156,-0.068847656,-0.068847656,-0.068847656,-0.036132813,-0.036132813,0.0546875,0.0546875,0.0546875,-0.08935547,-0.08935547,-0.028808594,-0.0126953125,-0.0068359375,0.019042969,0.091796875,0.16748047,0.16748047,0.13183594,0.13183594,0.13183594,0.18847656,0.18847656,0.16455078,0.24804688,0.34375,0.35742188,0.3569336,0.46875,0.46875,0.5239258,0.55908203,0.82128906,0.82128906,0.82128906,0.83251953,0.79345703,0.7338867,0.68359375,0.68359375,0.6538086,0.6538086,0.6069336,0.6069336,0.5332031,0.5332031,0.5107422,0.48535156,0.48535156,0.52246094,0.5361328,0.47216797,0.47216797,0.49121094,0.51660156,0.51660156,0.5083008,0.47314453,0.4272461,0.3955078,0.3955078,0.46289063,0.46289063,0.55126953,0.50634766,0.50634766,
left,0,8,0.47802734,0.47802734,0.47802734,0.47802734,0.47802734,0.49414063,0.4873047,0.4873047,0.4892578,0.4892578,0.4975586,0.4814453,0.47314453,0.47314453,0.47314453,0.46972656,0.47070313,0.48046875,0.48046875,0.45458984,0.47509766,0.47509766,0.4765625,0.4765625,0.47460938,0.47460938,0.47460938,0.4741211,0.47460938,0.47070313,0.47070313,0.4609375,0.46679688,0.46679688,0.34765625,0.34765625,0.25634766,0.25634766,0.20898438,0.20898438,0.20898438,0.29589844,0.29589844,0.06982422,0.06982422,0.052734375,0.052734375,0.052734375,0.115234375,0.24072266,0.29101563,0.3461914,0.3461914,0.36914063,0.35742188,0.35742188,0.35742188,0.56884766,0.5908203,0.5830078,0.86035156,0.86035156,0.8769531,0.8769531,0.8769531,0.8769531,0.8769531,0.7832031,0.7832031,0.6533203,0.6533203,0.6791992,0.5908203,0.5908203,0.5473633,0.5473633,0.52978516,0.54003906,0.54003906,0.53125,0.53125,0.50683594,0.50683594,0.5834961,0.5834961,0.5834961,0.5732422,0.5732422,0.5048828,0.5048828,0.47021484,0.47021484,0.47021484,0.4663086,0.45361328,
right,0,8,0.4350586,0.4350586,0.4428711,0.4428711,0.4428711,0.43798828,0.43798828,0.43017578,0.4350586,0.4350586,0.44433594,0.44189453,0.4423828,0.4423828,0.44384766,0.44384766,0.44384766,0.45703125,0.43652344,0.4296875,0.4296875,0.42822266,0.42382813,0.43359375,0.4140625,0.4140625,0.44091797,0.44091797,0.4663086,0.46240234,0.46240234,0.55810547,0.55810547,0.73535156,0.73535156,0.73535156,0.73876953,0.68896484,0.73291016,0.73291016,0.74072266,0.7680664,0.7392578,0.7138672,0.7128906,0.7104492,0.6635742,0.5180664,0.5180664,0.47265625,0.33251953,0.42871094,0.42871094,0.56396484,0.18164063,-0.11376953,-0.07373047,0.125,0.1352539,0.28515625,0.30517578,0.30517578,0.095214844,0.0014648438,0.13671875,0.13671875,0.30615234,0.30615234,0.30615234,0.29345703,0.29345703,0.26171875,0.26171875,0.26171875,0.3173828,0.3173828,0.27294922,0.27294922,0.34472656,0.34472656,0.34472656,0.32763672,0.32763672,0.3227539,0.3227539,0.34472656,0.34472656,0.34472656,0.3798828,0.3798828,0.34814453,0.34814453,0.28808594,0.28808594,0.28808594,
up,0,8,0.39746094,0.39746094,0.4267578,0.4267578,0.4267578,0.3852539,0.3852539,0.38183594,0.38671875,0.3857422,0.38085938,0.38085938,0.39404297,0.39404297,0.3852539,0.39941406,0.40478516,0.40185547,0.40185547,0.41259766,0.41259766,0.38720703,0.3774414,0.3774414,0.37597656,0.38085938,0.3618164,0.3618164,0.40771484,0.40771484,0.40771484,0.36621094,0.36621094,0.36669922,0.4404297,0.4404297,0.4169922,0.4169922,0.4423828,0.4423828,0.7319336,0.7319336,0.7319336,0.6660156,0.6660156,0.5786133,0.5786133,0.5439453,0.5439453,0.47509766,0.44726563,0.3696289,0.23291016,0.061523438,0.061523438,-0.1015625,-0.25585938,-0.3076172,-0.4633789,0.09082031,0.09082031,0.09082031,-0.18945313,-0.18945313,-0.36376953,-0.36376953,-0.35498047,-0.3178711,-0.24023438,-0.25,-0.2631836,-0.19140625,-0.17089844,-0.17822266,-0.17822266,-0.17822266,-0.092285156,-0.09033203,-0.040527344,-0.040527344,-0.040527344,-0.030761719,-0.030761719,0.0014648438,0.0014648438,0.019042969,0.019042969,0.091796875,0.051757813,0.051757813,0.055664063,0.022949219,
down,0,8,0.34423828,0.34423828,0.38232422,0.38232422,0.38232422,0.36132813,0.36132813,0.36279297,0.36279297,0.4482422,0.4482422,0.3725586,0.36572266,0.40673828,0.38867188,0.38867188,0.33691406,0.31835938,0.35107422,0.38867188,0.36865234,0.2890625,0.34765625,0.42285156,0.42041016,0.39501953,0.37304688,0.37304688,0.3256836,0.359375,0.359375,0.36083984,0.30419922,0.30419922,0.3461914,0.33935547,0.3408203,0.3408203,0.3408203,0.32226563,0.32226563,0.2866211,0.21142578,0.10107422,0.076660156,0.025878906,0.048339844,0.048339844,0.1381836,0.1381836,0.171875,0.23486328,0.30126953,0.25341797,0.25341797,-0.10058594,-0.10058594,0.061523438,0.36328125,0.36328125,0.07128906,0.07128906,0.23388672,0.23388672,0.23388672,0.14453125,0.037109375,0.12207031,0.12207031,0.125,0.029785156,-0.03125,0.06591797,0.06591797,0.01953125,0.01953125,0.0126953125,0.0126953125,-0.024902344,-0.10449219,-0.10449219,-0.034179688,0.0390625,0.0390625,-0.0014648438,-0.005859375,0.022949219,0.022949219,-0.0024414063,-0.0024414063,0.020019531,0.13623047,0.13623047,0.0024414063,0.0024414063,
square,0,8,0.46777344,0.46777344,0.49023438,0.49023438,0.49023438,0.484375,0.484375,0.46191406,0.46191406,0.43066406,0.42822266,0.42822266,0.453125,0.45458984,0.4658203,0.4404297,0.4404297,0.43554688,0.4326172,0.4243164,0.4243164,0.4169922,0.4169922,0.4169922,0.4296875,0.4428711,0.42822266,0.40966797,0.39990234,0.43798828,0.4736328,0.4580078,0.4580078,0.4477539,0.44482422,0.4428711,0.50390625,0.50390625,0.453125,0.453125,0.82910156,0.82910156,0.82910156,0.9160156,0.9160156,0.8417969,0.77001953,0.74853516,0.74853516,0.74853516,0.6694336,0.6044922,0.4897461,0.4897461,0.38476563,0.3095703,0.3095703,0.22949219,0.07128906,0.07128906,0.07128906,0.07128906,0.076171875,0.076171875,0.09326172,0.09326172,0.104003906,0.104003906,0.06982422,0.171875,0.171875,0.38232422,0.17382813,0.17382813,0.17382813,0.17382813,0.091796875,0.091796875,-0.12451172,-0.12451172,-0.075683594,-0.075683594,-0.075683594,-0.5307617,-0.5307617,-0.12109375,-0.12109375,-0.12109375,-0.5239258,-0.5239258,-0.014160156,-0.014160156,-0.19580078,-0.4116211,-0.11669922,0.10205078,0.10205078,-0.025878906,-0.025878906,0.15625,0.021972656,0.021972656,0.109375,0.109375,-0.0073242188,-0.0073242188,0.024902344,9.765625E-4,9.765625E-4,-0.0234375,-0.0234375,-0.061523438,-0.061523438,-0.061523438,-0.076660156,-0.015625,-9.765625E-4,-0.017089844,-0.09277344,-0.09277344,-0.09277344,0.08154297,0.08154297,0.36767578,0.36767578,0.36767578,0.36767578,0.36767578,0.35107422,0.3930664,0.3930664,0.3930664,0.3930664,0.4580078,0.47021484,0.37060547,0.37060547,0.19482422,0.19482422,0.21191406,0.41308594,0.41308594,0.41308594,0.30810547,0.24169922,0.24169922,0.24169922,0.24169922,0.26513672,0.2475586,0.28955078,0.3388672,0.390625,0.38378906,0.38378906,0.38378906,0.4086914,0.3955078,0.3955078,0.4140625,0.43945313,0.4580078,0.44628906,0.43798828,0.45996094,0.45654297,0.44335938,0.44335938,0.44335938,
triangle,0,8,0.40820313,0.40820313,0.40966797,0.40966797,0.40966797,0.3955078,0.3955078,0.4086914,0.4086914,0.40576172,0.40039063,0.40039063,0.39013672,0.39013672,0.41503906,0.41503906,0.41503906,0.38427734,0.4248047,0.35205078,0.35205078,0.4140625,0.4140625,0.4140625,0.40576172,0.40576172,0.41015625,0.41015625,0.41357422,0.41357422,0.41357422,0.41748047,0.41748047,0.45654297,0.45654297,0.4711914,0.45898438,0.45898438,0.45898438,0.45898438,0.45898438,0.30126953,0.30126953,0.3725586,0.3725586,0.4111328,0.41748047,0.41748047,0.41796875,0.4399414,0.41503906,0.31591797,0.20751953,0.20751953,0.20751953,0.20751953,0.20751953,0.20751953,0.2133789,0.2133789,0.2133789,0.2133789,0.2133789,0.12939453,0.076171875,0.076171875,0.076171875,0.076171875,-0.022460938,-0.022460938,-0.022460938,-0.022460938,-0.022460938,-0.022460938,-0.038085938,-0.14501953,-0.16796875,-0.16796875,-0.16796875,-0.16796875,-0.16796875,-0.16601563,-0.17773438,-0.17773438,0.17285156,0.20263672,0.12939453,0.12939453,0.29003906,0.30371094,0.30371094,0.30371094,0.30371094,0.21289063,0.20947266,0.2763672,0.106933594,0.106933594,0.106933594,0.106933594,0.106933594,0.106933594,0.22070313,0.22070313,0.22070313,0.22070313,0.22070313,0.28564453,0.28564453,0.30371094,0.34375,0.22363281,0.22363281,0.22363281,0.22363281,0.22363281,0.0625,0.0625,0.0625,0.0625,0.024414063,4.8828125E-4,0.063964844,0.028808594,0.001953125,0.03173828,0.03173828,0.0053710938,0.26367188,0.26367188,0.26367188,0.26367188,0.25097656,0.36083984,0.36083984,0.4404297,0.43701172,0.43701172,0.43701172,0.43701172,0.43701172,0.43701172,0.43847656,0.43847656,0.44091797,0.44921875,0.44970703,0.4272461,0.39697266,0.44628906,0.44628906,0.44140625,0.45361328,0.45361328,0.45361328,0.45361328,0.44433594,0.44433594,0.44433594,0.44433594,0.44433594,0.46484375,
circleCw,0,8,0.5722656,0.5722656,0.5722656,0.5698242,0.5698242,0.546875,0.52490234,0.5292969,0.5600586,0.5649414,0.53027344,0.51171875,0.5390625,0.5390625,0.5385742,0.5053711,0.5053711,0.51416016,0.5,0.50146484,0.5234375,0.5361328,0.5517578,0.54052734,0.5058594,0.52197266,0.54248047,0.54248047,0.54248047,0.5209961,0.5678711,0.56396484,0.56396484,0.54589844,0.5625,0.60595703,0.6201172,0.6201172,0.67333984,0.67333984,0.7705078,0.7705078,0.79833984,0.6923828,0.6923828,0.47607422,0.47607422,0.4663086,0.4663086,0.4663086,0.37353516,0.37353516,0.40820313,0.40820313,0.40820313,0.3544922,0.3544922,0.3125,0.3076172,0.2890625,0.2890625,0.2890625,0.18554688,0.18554688,0.10839844,0.10839844,0.16748047,0.2133789,0.12158203,-0.015136719,-0.015136719,0.009277344,0.14160156,0.14160156,-0.05126953,-0.05126953,-0.019042969,0.09326172,0.06591797,0.06591797,0.011230469,0.23046875,0.23046875,0.10888672,0.10888672,0.21191406,0.21191406,0.21191406,0.29785156,0.29785156,0.19921875,0.19921875,0.15283203,0.15917969,0.27929688,0.3359375,0.3359375,0.39892578,0.4189453,0.3959961,0.42773438,0.42773438,0.46142578,0.46142578,0.39257813,0.3486328,0.3486328,0.35742188,0.40283203,0.25732422,0.25732422,0.2915039,0.2915039,0.3227539,0.31884766,0.31884766,0.30517578,0.30517578,0.30810547,0.2758789,0.23486328,0.27294922,0.28710938,0.2944336,0.27441406,0.27441406,0.33642578,0.33642578,0.30126953,0.30126953,0.35205078,0.35205078,0.35205078,0.35498047,0.35498047,0.33642578,0.33642578,0.33642578,0.34228516,0.34228516,0.328125,0.328125,0.38134766,0.38134766,0.38134766,
circleCcw,0,8,0.40722656,0.40722656,0.40722656,0.36767578,0.36767578,0.40234375,0.40234375,0.38623047,0.38623047,0.38623047,0.38623047,0.38623047,0.38623047,0.38623047,0.38623047,0.38330078,0.40673828,0.37939453,0.37939453,0.37939453,0.3720703,0.37402344,0.40527344,0.4033203,0.36328125,0.36328125,0.42529297,0.42529297,0.42529297,0.44140625,0.39160156,0.3334961,0.31982422,0.49609375,0.50439453,0.50439453,0.3857422,0.32177734,0.37402344,0.37402344,0.37402344,0.3515625,0.3515625,0.36669922,0.3076172,0.25439453,0.25439453,0.25439453,0.100097656,0.100097656,0.015625,0.015625,0.15917969,0.15917969,0.15917969,0.11669922,0.11669922,0.31689453,0.3256836,0.3256836,0.28955078,0.28955078,0.3564453,0.3564453,0.48095703,0.3466797,0.21289063,0.4868164,0.4868164,0.43115234,0.43115234,0.2211914,0.2211914,0.37646484,0.55859375,0.53808594,0.13378906,0.13378906,0.13378906,0.26757813,0.26757813,0.06201172,0.06201172,-0.00390625,-0.00390625,-0.00390625,-0.020507813,-0.020507813,-0.020507813,-0.020507813,0.076171875,0.14453125,0.056640625,0.18554688,0.18554688,0.15429688,0.15429688,0.18017578,-0.038085938,-0.038085938,0.103027344,0.103027344,0.057128906,-0.10058594,-0.10058594,0.07373047,0.07373047,0.018554688,-0.017578125,0.030273438,0.030273438,-0.040039063,0.011230469,0.052734375,0.0703125,0.0703125,0.08886719,0.08886719,0.08886719,0.08886719,0.08886719,0.119140625,0.119140625,0.16503906,0.31054688,0.27001953,0.25341797,0.25341797,0.40185547,0.45410156,0.45410156,0.47558594,0.4892578,0.5395508,0.5395508,0.52001953,0.5498047,0.6074219,0.6074219,0.56396484,0.56396484,0.52783203,0.46679688,0.41308594,0.41308594,0.5,0.5,0.5,0.5,0.5,
left,0,9,0.49902344,0.49902344,0.4560547,0.4560547,0.48291016,0.48779297,0.48779297,0.47558594,0.46240234,0.50878906,0.50878906,0.50878906,0.46826172,0.44482422,0.49609375,0.49609375,0.46777344,0.46435547,0.49658203,0.49414063,0.49414063,0.49316406,0.48291016,0.48242188,0.51708984,0.51708984,0.48486328,0.47265625,0.4892578,0.4814453,0.49023438,0.5107422,0.5107422,0.46728516,0.46728516,0.4741211,0.41357422,0.41357422,0.3701172,0.34277344,0.25097656,0.17480469,0.05419922,0.036621094,0.106933594,0.28222656,0.056152344,-0.14160156,-0.14160156,0.06542969,0.06542969,0.06542969,0.09082031,0.09082031,0.11328125,0.32128906,0.3798828,0.31396484,0.31396484,0.37890625,0.5332031,0.61376953,0.48632813,0.45947266,0.7519531,0.7519531,0.87158203,0.87890625,0.6948242,0.6948242,0.84033203,0.63378906,0.63378906,0.56103516,0.56103516,0.5097656,0.5097656,0.5097656,0.46289063,0.4658203,0.5004883,0.5004883,0.5004883,0.42529297,0.42529297,0.40966797,0.40966797,0.37060547,0.37060547,0.37060547,0.3671875,0.3671875,0.3671875,0.3671875,0.38916016,0.41064453,0.36914063,
right,0,9,0.47265625,0.47265625,0.47265625,0.47265625,0.47265625,0.49169922,0.48779297,0.48779297,0.48095703,0.4946289,0.48828125,0.48486328,0.47216797,0.47216797,0.48779297,0.49902344,0.47705078,0.47705078,0.47705078,0.4794922,0.48535156,0.4897461,0.4897461,0.47558594,0.49902344,0.49902344,0.47607422,0.47607422,0.48339844,0.5053711,0.5053711,0.5048828,0.47558594,0.54003906,0.54003906,0.5209961,0.5126953,0.5498047,0.84814453,0.84814453,0.85009766,0.85009766,1.0991211,1.0830078,1.0830078,0.86083984,0.86083984,0.7285156,0.7285156,0.7285156,0.52197266,0.52197266,0.4506836,0.4506836,0.20898438,0.20898438,0.20898438,0.25585938,0.25585938,-0.048828125,-0.048828125,-0.015136719,-0.015136719,-0.015136719,-0.21240234,0.07373047,0.04345703,0.04345703,0.04345703,0.07128906,0.07128906,0.0073242188,0.049316406,0.14013672,0.06298828,0.060058594,0.08642578,0.1508789,0.1508789,0.1508789,0.14550781,0.14550781,0.1274414,0.21240234,0.21240234,0.21240234,0.21240234,0.21240234,0.2553711,0.2553711,0.24658203,0.24658203,0.2133789,0.21875,0.21875,0.2163086,0.25976563,
up,0,9,0.4321289,0.4321289,0.4741211,0.4741211,0.4741211,0.46484375,0.45214844,0.44970703,0.46923828,0.46435547,0.46435547,0.44384766,0.43652344,0.43652344,0.45117188,0.45117188,0.4506836,0.4506836,0.4506836,0.43164063,0.44189453,0.40771484,0.4248047,0.4453125,0.4321289,0.4321289,0.40283203,0.40966797,0.40722656,0.43017578,0.43017578,0.4555664,0.4555664,0.52246094,0.6225586,0.80615234,0.80615234,0.9291992,1.0234375,1.0234375,0.9423828,0.9658203,0.7832031,0.7832031,0.7832031,0.6069336,0.6069336,0.43359375,0.43359375,0.43359375,0.2734375,0.07910156,-0.28564453,-0.28564453,-0.4736328,-0.4736328,-0.4736328,-0.03515625,-0.03515625,-0.041992188,-0.171875,-0.3491211,-0.3491211,-0.3491211,-0.31933594,-0.35302734,-0.3881836,-0.3881836,-0.19189453,-0.19189453,-0.19189453,-0.18457031,-0.18457031,-0.16015625,-0.072753906,-0.072753906,-0.00390625,-0.00390625,-0.037597656,-0.037597656,
down,0,9,0.46777344,0.46777344,0.4272461,0.4272461,0.45263672,0.45263672,0.42871094,0.41552734,0.44433594,0.48095703,0.4765625,0.44091797,0.45751953,0.46923828,0.48291016,0.51171875,0.39208984,0.39208984,0.40771484,0.40771484,0.40771484,0.43652344,0.43652344,0.43603516,0.43603516,0.4399414,0.4399414,0.4399414,0.40673828,0.40673828,0.4375,0.4375,0.40478516,0.40478516,0.40478516,0.46533203,0.52783203,0.48486328,0.38916016,0.38916016,0.3959961,0.40576172,0.36572266,0.36572266,0.30371094,0.33251953,0.1484375,0.08251953,0.08251953,0.010253906,0.010253906,-0.0034179688,-0.0034179688,-0.0034179688,0.14208984,0.14208984,0.30273438,0.30273438,0.43359375,0.43359375,0.47509766,0.07861328,-0.057617188,0.40625,0.40625,0.40625,0.2890625,0.103027344,0.053710938,0.08691406,0.04638672,0.04638672,0.05908203,0.025390625,-0.0014648438,0.05126953,0.07519531,0.080078125,0.080078125,0.115234375,0.087890625,0.087890625,0.016113281,0.016113281,0.016113281,0.06738281,0.06738281,0.08251953,0.08251953,0.036621094,0.036621094,0.036621094,0.03955078,0.025878906,0.028320313,0.028320313,0.038085938,0.038085938,0.028320313,
square,0,9,0.5498047,0.5498047,0.5498047,0.54052734,0.54052734,0.5522461,0.5522461,0.5517578,0.5341797,0.5341797,0.52441406,0.52441406,0.55908203,0.55908203,0.54052734,0.54052734,0.54052734,0.5366211,0.5566406,0.5673828,0.55615234,0.5517578,0.5517578,0.5517578,0.5488281,0.5488281,0.5522461,0.54296875,0.54785156,0.5439453,0.56591797,0.56347656,0.55615234,0.5385742,0.5620117,0.5620117,0.5605469,0.5605469,0.54296875,0.5541992,0.5629883,0.56933594,0.59033203,0.58935547,0.58935547,0.6713867,0.7441406,0.7993164,0.80126953,0.80126953,0.7114258,0.7114258,0.7114258,0.7114258,0.7114258,0.68603516,0.6635742,0.6352539,0.6352539,0.65966797,0.65966797,0.5957031,0.5488281,0.5239258,0.53222656,0.52197266,0.45263672,0.47998047,0.47998047,0.41259766,0.41259766,0.3383789,0.48876953,0.48876953,0.5473633,0.50439453,0.4501953,0.4501953,0.50097656,0.4663086,0.4663086,0.34472656,0.34472656,0.42089844,0.42089844,0.2788086,0.2788086,0.234375,0.36132813,0.36132813,0.3798828,0.3798828,0.39257813,0.35058594,0.2758789,0.41796875,0.41796875,0.3720703,0.3720703,0.46972656,0.44189453,0.44189453,0.38183594,0.3544922,0.3852539,0.30078125,0.2265625,0.24316406,0.24316406,0.125,0.125,0.05419922,0.041015625,0.03955078,0.015136719,-0.018066406,-0.13134766,-0.27441406,-0.26904297,-0.068847656,-0.013183594,-0.20263672,-0.5136719,0.095703125,0.095703125,0.095703125,-0.08886719,-0.08886719,-0.171875,-0.08203125,0.15185547,0.067871094,0.067871094,0.07861328,0.13476563,0.072265625,0.072265625,0.072265625,0.015625,0.015625,-0.027832031,0.084472656,-0.18798828,-0.18798828,-0.18798828,-0.12841797,-0.12841797,-0.16845703,-0.24511719,-0.1899414,-0.1899414,-0.1772461,-0.18164063,-0.17236328,-0.21435547,-0.111328125,-0.111328125,-0.12841797,-0.12841797,-0.060546875,-0.060546875,-0.044921875,0.026367188,-0.075683594,-0.030273438,-0.030273438,0.026367188,-0.07128906,-0.07128906,-0.04248047,-0.011230469,0.01171875,0.03173828,0.057617188,0.06738281,0.06738281,0.010253906,0.010253906,0.2397461,0.2397461,0.2397461,0.27734375,0.27734375,0.37548828,0.37548828,0.35986328,0.35986328,0.41796875,0.4506836,0.4506836,0.5390625,0.5390625,0.5390625,0.4892578,0.49365234,0.4790039,0.45263672,0.35986328,0.35986328,0.34472656,0.27246094,0.27246094,0.234375,0.17236328,0.19580078,0.24511719,0.26611328,0.20361328,0.20361328,0.23925781,0.23925781,0.23828125,0.23828125,0.23828125,0.32763672,0.32763672,0.32763672,0.32763672,0.32763672,0.32666016,0.32177734,0.3383789,0.33544922,0.36572266,0.36035156,0.36035156,0.36865234,0.36865234,0.42333984,0.42333984,0.42333984,0.4296875,0.39453125,0.3852539,
triangle,0,9,0.45263672,0.45263672,0.45263672,0.45263672,0.45263672,0.4453125,0.45166016,0.4560547,0.45410156,0.45117188,0.4453125,0.4453125,0.44628906,0.44628906,0.4326172,0.43701172,0.4165039,0.43554688,0.4765625,0.4560547,0.4560547,0.43847656,0.4375,0.45166016,0.46484375,0.46484375,0.47851563,0.47021484,0.4633789,0.46240234,0.46240234,0.46826172,0.4921875,0.4790039,0.45947266,0.45751953,0.49121094,0.52197266,0.546875,0.38134766,0.38134766,0.38134766,0.38134766,0.31396484,0.31396484,0.32128906,0.32128906,0.43066406,0.43066406,0.4873047,0.55908203,0.55908203,0.5229492,0.5234375,0.42578125,0.3076172,0.3076172,0.43408203,0.43408203,0.19677734,0.19677734,0.19677734,0.26367188,0.26416016,0.13476563,0.13476563,0.24511719,0.24511719,0.23339844,0.203125,0.203125,0.22558594,0.22558594,0.16064453,0.20507813,0.20507813,0.104003906,0.026367188,0.03515625,0.03515625,0.03515625,0.068847656,0.068847656,-0.052734375,-0.052734375,-0.037597656,-0.037597656,-0.037597656,-0.080078125,-0.080078125,-0.12939453,-0.12939453,-0.013183594,-0.013183594,-0.05517578,0.099609375,0.099609375,0.18261719,0.12402344,0.096191406,0.1616211,0.1616211,0.20703125,0.20703125,0.1850586,0.1850586,0.11621094,0.12060547,0.17675781,0.19189453,0.11376953,0.08300781,0.24365234,0.24365234,0.22070313,0.1850586,0.2397461,0.34228516,0.23046875,0.17138672,0.17138672,0.21972656,0.14257813,0.14257813,0.14257813,0.14257813,0.1459961,0.07324219,0.022949219,-0.0126953125,-0.078125,-0.078125,0.017578125,0.05078125,-0.009277344,-0.08984375,-0.09326172,0.0043945313,0.08105469,0.06933594,0.061523438,0.032226563,0.032226563,0.032226563,0.032226563,0.07861328,0.07861328,0.07861328,0.6508789,0.6508789,0.6508789,0.6508789,0.1665039,0.1665039,0.2866211,0.36279297,0.36279297,0.36279297,0.36279297,0.37548828,0.37548828,0.37548828,0.37548828,0.37548828,
circleCw,0,9,0.52001953,0.52001953,0.49316406,0.49316406,0.49316406,0.57666016,0.57666016,0.50683594,0.50683594,0.5546875,0.5708008,0.5708008,0.5058594,0.5083008,0.51123047,0.5317383,0.5722656,0.5493164,0.4897461,0.578125,0.578125,0.58203125,0.53808594,0.55566406,0.6459961,0.6459961,0.5888672,0.5888672,0.62646484,0.62646484,0.62646484,0.6484375,0.6113281,0.6401367,0.65771484,0.6118164,0.5932617,0.57470703,0.6386719,0.6386719,0.61572266,0.5419922,0.49023438,0.48632813,0.51953125,0.5371094,0.5151367,0.46923828,0.40722656,0.37939453,0.4013672,0.4013672,0.37890625,0.30859375,0.24316406,0.24316406,0.24316406,0.17236328,0.17236328,0.10644531,0.10644531,0.07714844,0.07714844,0.07714844,0.11376953,0.11376953,-0.16552734,-0.16552734,-0.30859375,-0.123046875,-0.041015625,-0.19189453,-0.19189453,0.064453125,0.064453125,-0.019042969,-0.115234375,-0.115234375,0.076171875,0.076171875,-0.017578125,-0.017578125,-0.017578125,-0.017578125,-0.017578125,-0.17382813,-0.17382813,-0.018066406,0.08544922,0.08544922,0.08544922,0.08544922,0.1772461,0.1772461,0.1772461,0.21679688,0.21679688,0.29052734,0.18115234,0.06738281,0.15576172,0.15576172,0.13720703,0.13720703,0.1616211,0.21386719,0.22998047,0.31591797,0.31591797,0.3100586,0.3100586,0.2529297,0.2529297,0.20410156,0.3256836,0.3256836,0.27929688,0.27929688,0.25195313,0.23535156,0.2626953,0.28222656,0.28222656,0.27246094,0.27246094,0.35253906,0.24804688,0.24804688,0.28076172,0.28076172,0.52001953,0.52001953,0.34472656,0.34472656,0.34472656,0.33935547,0.33935547,0.3671875,0.35302734,0.35302734,0.36132813,0.36132813,0.4326172,0.43408203,0.43115234,0.43115234,0.43115234,0.44335938,0.44335938,0.4272461,0.40478516,0.4609375,0.4609375,0.4609375,0.4399414,0.4116211,
circleCcw,0,9,0.24267578,0.24267578,0.2319336,0.2319336,0.24267578,0.24267578,0.23779297,0.23779297,0.24414063,0.24072266,0.24072266,0.2421875,0.2548828,0.22998047,0.24267578,0.24267578,0.2211914,0.2211914,0.21484375,0.22460938,0.21875,0.24316406,0.22607422,0.25585938,0.24804688,0.24804688,0.24658203,0.24609375,0.25048828,0.25683594,0.25683594,0.33496094,0.33496094,0.20703125,0.20703125,0.25683594,0.32910156,0.32910156,0.3359375,0.3642578,0.27685547,0.2685547,0.2109375,0.21777344,0.2319336,0.4008789,0.4008789,0.30322266,0.060058594,0.07470703,0.1665039,0.1665039,0.17285156,0.17285156,0.12548828,0.12548828,0.17089844,0.18261719,0.18261719,0.2211914,0.2211914,0.3383789,0.3383789,0.3383789,0.31591797,0.31591797,0.45263672,0.45263672,0.4008789,0.4008789,0.3515625,0.5073242,0.5073242,0.55566406,0.47509766,0.21289063,0.21289063,0.21289063,0.15332031,0.15332031,0.05078125,0.05078125,0.119628906,0.24121094,0.25341797,0.119140625,-0.119140625,-0.119140625,0.3256836,0.3256836,0.063964844,0.063964844,0.063964844,0.063964844,0.063964844,0.0029296875,0.060058594,0.048828125,0.048828125,0.048828125,-0.056640625,-0.056640625,-0.099609375,-0.18310547,-0.18310547,-0.2529297,-0.2529297,-0.0068359375,-0.0068359375,0.13134766,0.041503906,-0.018066406,0.03125,0.03125,-0.03466797,-0.03466797,0.23486328,0.23486328,0.23486328,0.24414063,0.17822266,0.25439453,0.25439453,0.44189453,0.50683594,0.45361328,0.4482422,0.4482422,0.53271484,0.69677734,0.71533203,0.56689453,0.56689453,0.4892578,0.4892578,0.59228516,0.59228516,0.59228516,0.5917969,0.59375,0.5058594,0.5058594,0.5058594,0.47509766,0.47509766,0.43798828,0.43798828,
left,0,10,0.3876953,0.3876953,0.3876953,0.38427734,0.38427734,0.3828125,0.38476563,0.38378906,0.39208984,0.390625,0.35302734,0.35302734,0.3544922,0.3544922,0.40625,0.4189453,0.39794922,0.38232422,0.3803711,0.39941406,0.40673828,0.42089844,0.39013672,0.36572266,0.39208984,0.39208984,0.3798828,0.3720703,0.3720703,0.36767578,0.36767578,0.35839844,0.35839844,0.34814453,0.27441406,0.27441406,0.21679688,0.21679688,0.29638672,0.29638672,0.08691406,0.08691406,0.08691406,0.053222656,0.053222656,0.059570313,-0.13378906,-0.18261719,-0.18261719,-0.18261719,-0.03515625,-0.03515625,0.0073242188,0.27392578,0.27392578,0.40039063,0.40039063,0.46240234,0.46240234,0.51904297,0.7319336,0.7319336,0.61865234,0.61865234,0.80371094,0.80371094,0.8774414,0.80029297,0.69677734,0.65625,0.65625,0.62353516,0.62353516,0.62353516,0.5317383,0.5317383,0.6347656,0.6347656,0.4404297,0.4404297,0.4404297,0.39013672,0.29248047,0.29882813,0.29882813,0.4008789,0.4008789,0.4008789,0.48339844,0.48339844,
right,0,10,0.47802734,0.47802734,0.4663086,0.4663086,0.4663086,0.47460938,0.45898438,0.49853516,0.46826172,0.46826172,0.49658203,0.49658203,0.4946289,0.49169922,0.484375,0.4741211,0.48242188,0.49560547,0.49560547,0.484375,0.484375,0.49121094,0.52246094,0.515625,0.52001953,0.5097656,0.53759766,0.5473633,0.57958984,0.7832031,0.7832031,0.8022461,0.8022461,0.88378906,0.9067383,0.89697266,0.9091797,1.0942383,1.0942383,1.0942383,1.0942383,1.059082,1.059082,0.22021484,-0.023925781,-0.023925781,-0.023925781,-0.023925781,0.2758789,0.2758789,0.1850586,0.09082031,-0.026367188,-0.026367188,0.17285156,-0.0029296875,-0.0029296875,-0.3466797,-0.4609375,-0.28222656,-0.17333984,-0.07910156,-0.009765625,-0.009765625,-0.05517578,-0.16894531,-0.16357422,0.00390625,0.00390625,-0.037109375,-0.037109375,-0.044921875,-0.044921875,0.024902344,0.024902344,0.024902344,0.025878906,0.018066406,0.06591797,0.06591797,0.06591797,0.0859375,0.0859375,0.13232422,0.13232422,0.107910156,0.10107422,0.09375,0.12451172,0.1328125,
up,0,10,0.4194336,0.4194336,0.4194336,0.37451172,0.37451172,0.3569336,0.3569336,0.3203125,0.35253906,0.35253906,0.4296875,0.46142578,0.3569336,0.3569336,0.39257813,0.41796875,0.42041016,0.39111328,0.3852539,0.37597656,0.36572266,0.39794922,0.39794922,0.3774414,0.3779297,0.35839844,0.3618164,0.39453125,0.39404297,0.37353516,0.37353516,0.3959961,0.3959961,0.42578125,0.42578125,0.42578125,0.5961914,0.84033203,0.89941406,0.89941406,1.2148438,1.2148438,1.0805664,0.8798828,0.6796875,0.47851563,0.47851563,0.47851563,0.47851563,0.47851563,0.2241211,0.2241211,0.045898438,-0.07324219,-0.21679688,-0.5576172,-0.5576172,-0.009277344,-0.009277344,-0.083496094,-0.0034179688,-0.036621094,-0.27490234,-0.27490234,-0.45654297,-0.45654297,-0.34472656,-0.34472656,-0.31347656,-0.19726563,-0.19726563,-0.123535156,-0.052246094,-0.020507813,-0.0859375,-0.04345703,0.03857422,0.03857422,0.015136719,0.015136719,-0.0126953125,0.03466797,0.03466797,0.107421875,0.107421875,0.15625,0.20751953,0.21289063,
down,0,10,0.37597656,0.37597656,0.39013672,0.39013672,0.39013672,0.35498047,0.35498047,0.359375,0.3671875,0.44189453,0.3671875,0.3671875,0.36572266,0.39990234,0.4345703,0.4345703,0.40283203,0.38964844,0.4086914,0.4272461,0.4272461,0.39257813,0.39257813,0.39257813,0.3828125,0.3828125,0.36523438,0.37548828,0.3881836,0.37646484,0.37109375,0.3569336,0.33398438,0.31689453,0.25878906,0.25878906,0.25878906,0.25878906,0.23828125,0.23828125,0.15820313,0.0126953125,0.0126953125,-0.019042969,0.001953125,-0.0014648438,0.0,0.095214844,0.19726563,0.22558594,0.32177734,0.32177734,0.18701172,0.18701172,0.81396484,0.81396484,0.81396484,0.6879883,0.6879883,0.087890625,0.087890625,0.087890625,0.27929688,0.27929688,0.5449219,0.5449219,-0.088378906,-0.088378906,-0.088378906,-0.14257813,-0.140625,-0.072753906,-0.072753906,-0.084472656,-0.084472656,-0.084472656,0.0048828125,0.0048828125,-0.022460938,-0.022460938,-0.022460938,-0.0073242188,-0.0073242188,0.040527344,0.040527344,0.029785156,0.029785156,
square,0,10,0.49560547,0.49560547,0.49560547,0.5126953,0.5126953,0.4868164,0.46777344,0.47460938,0.49853516,0.51416016,0.49365234,0.45947266,0.4951172,0.49951172,0.49951172,0.48632813,0.48632813,0.4711914,0.4711914,0.49023438,0.49023438,0.49023438,0.46777344,0.4428711,0.453125,0.5463867,0.5463867,0.54541016,0.52246094,0.50878906,0.50878906,0.50878906,0.55566406,0.55566406,0.5415039,0.515625,0.6113281,0.75683594,0.796875,0.85791016,0.85791016,0.7495117,0.7495117,0.63916016,0.6152344,0.76123047,0.6459961,0.6459961,0.4946289,0.4946289,0.51464844,0.51464844,0.44628906,0.35839844,0.35839844,0.2548828,0.2548828,0.3076172,0.3017578,0.30566406,0.3178711,0.3178711,0.38720703,0.38720703,0.42138672,0.42138672,0.42138672,0.5131836,0.5131836,0.5131836,0.3798828,0.3798828,0.22998047,0.22998047,0.18457031,0.18457031,0.18457031,0.25,0.25,0.31933594,0.31933594,0.31933594,0.39746094,0.39746094,0.31884766,0.25,0.23583984,0.22509766,0.22509766,0.080078125,0.080078125,9.765625E-4,9.765625E-4,0.041992188,0.024902344,-0.10595703,0.022949219,-0.053222656,-0.17382813,-0.27734375,-0.3696289,-0.34960938,-0.34960938,-0.3046875,-0.3046875,-0.30322266,-0.19189453,-0.19189453,-0.10205078,-0.10205078,-0.18359375,0.024902344,0.13183594,-0.019042969,-0.019042969,0.15576172,0.15576172,0.19824219,-0.06689453,-0.23535156,-0.12890625,0.02734375,-0.2133789,-0.2133789,-0.1352539,-0.1352539,-0.1928711,-0.1928711,-0.2446289,-0.2241211,-0.2241211,-0.17333984,-0.17333984,-0.21777344,-0.12597656,-0.12597656,-0.13232422,-0.13232422,-0.18701172,-0.16259766,-0.12451172,-0.11328125,-0.11328125,-0.111816406,0.041503906,0.041503906,0.06591797,0.041015625,0.024414063,0.044433594,0.104003906,0.13232422,0.11621094,0.115722656,0.20898438,0.32177734,0.32177734,0.32177734,0.37597656,0.43652344,0.5473633,0.5473633,0.5361328,0.5361328,0.60546875,0.60546875,0.64160156,0.63378906,0.51660156,0.42333984,0.35742188,0.35742188,0.35253906,0.35253906,0.31689453,0.31689453,0.28320313,0.3642578,0.3642578,0.4243164,0.3251953,0.22216797,0.22216797,0.20898438,0.24560547,0.24560547,0.34033203,0.34033203,0.28076172,0.28076172,0.28076172,0.33007813,0.36083984,0.37451172,0.3642578,0.35302734,0.37597656,0.37597656,0.37939453,0.37939453,0.39111328,0.39111328,0.3774414,0.42382813,0.42382813,0.4326172,0.40722656,0.4086914,0.43554688,0.4243164,0.40966797,0.43017578,0.38964844,0.38964844,0.3852539,0.39648438,0.39648438,
